<?xml version="1.0"?>
<xrdMeasurements xmlns="http://www.xrdml.com/XRDMeasurement/2.3" xmlns:xsi="http://www.w3.org/2001/XMLSchema-instance" xsi:schemaLocation="http://www.xrdml.com/XRDMeasurement/2.3 http://www.xrdml.com/XRDMeasurement/2.3/XRDMeasurement.xsd" status="Completed" recordIdentifier="{8F073A49-FB31-4CFD-9CDC-275372D1192B}">
	<comment>
		<entry/>
	</comment>
	<sample type="To be analyzed">
		<id>GPSS_Li1p2Mn0p6Zr0p2Fe0p1Co0p2Mg0p1Cl4_122325_694ae824ae15af25ac372786</id>
		<name></name>
		<preparedBy></preparedBy>
	</sample>
	<xrdMeasurement measurementType="Scan" status="Completed" sampleMode="Reflection">
		<usedWavelength intended="K-Alpha 1">
			<kAlpha1 unit="Angstrom">1.5405980</kAlpha1>
			<kAlpha2 unit="Angstrom">1.5444260</kAlpha2>
			<kBeta unit="Angstrom">1.3922500</kBeta>
			<ratioKAlpha2KAlpha1>0.5000</ratioKAlpha2KAlpha1>
		</usedWavelength>
		<incidentBeamPath>
			<radius unit="mm">145.00</radius>
			<xRayTube id="1010048" name="Empyrean Cu LFF HR (9430 033 7310x)">
				<tension unit="kV">40.0</tension>
				<current unit="mA">15.0</current>
				<anodeMaterial>Cu</anodeMaterial>
				<focus type="Line">
					<length unit="mm">12.0</length>
					<width unit="mm">0.4</width>
					<takeOffAngle unit="deg">6.0</takeOffAngle>
				</focus>
			</xRayTube>
			<sollerSlit id="21010002" name="Soller slits 0.04 rad.">
				<opening unit="rad">0.0400</opening>
			</sollerSlit>
			<mask id="22031000" name="Fixed mask 13 mm">
				<width unit="mm">9.00</width>
			</mask>
			<divergenceSlit id="22120001" name="Divergence slit 1°" xsi:type="fixedDivergenceSlitType">
				<distanceToSample unit="mm">50.00</distanceToSample>
				<height unit="mm">1.52</height>
			</divergenceSlit>
		</incidentBeamPath>
		<sampleMovement xsi:type="spinningSampleMovementType">
			<spinnerRevolutionTime unit="seconds">1.0</spinnerRevolutionTime>
		</sampleMovement>
		<diffractedBeamPath>
			<radius unit="mm">145.00</radius>
			<antiScatterSlit id="22090040" name="AS slit 9 mm (PIXcel)" xsi:type="fixedAntiScatterSlitType">
				<height unit="mm">9.00</height>
			</antiScatterSlit>
			<sollerSlit id="21020003" name="Large Soller slits 0.04 rad.">
				<opening unit="rad">0.0400</opening>
			</sollerSlit>
			<filter id="20030001" name="Large beta-filter Nickel">
				<material>Ni</material>
				<thickness unit="mm">0.020</thickness>
			</filter>
			<detector id="7010019" name="PIXcel1D-Medipix3 detector" xsi:type="rtmsDetectorType">
				<phd unit="keV">
					<lowerLevel>4.02</lowerLevel>
					<upperLevel>11.27</upperLevel>
				</phd>
				<mode>Scanning</mode>
				<activeLength unit="deg">5.542</activeLength>
			</detector>
		</diffractedBeamPath>
		<scan appendNumber="0" mode="Continuous" scanAxis="Gonio" status="Completed">
			<header>
				<startTimeStamp>2025-12-24T14:48:41-08:00</startTimeStamp>
				<endTimeStamp>2025-12-24T14:56:48-08:00</endTimeStamp>
				<author>
					<name>AutomatedUser</name>
				</author>
				<source>
					<applicationSoftware version="1.7b (136)">PANalytical Aeris Instrument Suite</applicationSoftware>
					<instrumentControlSoftware version="3.2.00000000 20240306">AERIS</instrumentControlSoftware>
					<instrumentID>950485</instrumentID>
				</source>
			</header>
			<dataPoints>
				<positions axis="2Theta" unit="deg">
					<startPosition>10.00943322</startPosition>
					<endPosition>99.99442286</endPosition>
				</positions>
				<positions axis="Omega" unit="deg">
					<startPosition>5.00471661</startPosition>
					<endPosition>49.99721143</endPosition>
				</positions>
				<commonCountingTime unit="seconds">12.495</commonCountingTime>
				<counts unit="counts">3201 3207 3190 3205 3290 3253 3186 3342 3266 3189 3193 3262 3134 3252 3115 3155 3194 3315 3261 3169 3189 3184 3195 3293 3262 3233 3217 3331 3204 3195 3271 3118 3357 3234 3347 3237 3380 3246 3395 3300 3223 3331 3323 3305 3292 3290 3303 3299 3328 3399 3185 3293 3261 3311 3316 3350 3309 3368 3254 3467 3194 3438 3374 3377 3289 3326 3249 3207 3258 3313 3383 3395 3296 3393 3484 3416 3377 3393 3427 3349 3395 3415 3425 3345 3330 3378 3358 3418 3421 3472 3352 3408 3453 3453 3533 3359 3349 3502 3479 3398 3384 3492 3565 3526 3482 3460 3398 3491 3484 3486 3433 3492 3604 3533 3421 3556 3542 3513 3387 3350 3481 3468 3472 3488 3501 3511 3445 3386 3504 3408 3522 3471 3430 3522 3553 3424 3442 3545 3476 3406 3414 3436 3512 3632 3564 3478 3475 3423 3563 3496 3517 3639 3462 3609 3420 3558 3461 3435 3451 3524 3490 3550 3570 3598 3521 3569 3463 3588 3533 3421 3579 3452 3442 3515 3547 3538 3542 3549 3509 3499 3506 3538 3477 3501 3459 3555 3434 3565 3430 3450 3514 3421 3410 3543 3551 3394 3517 3563 3585 3491 3467 3415 3452 3352 3550 3442 3524 3466 3402 3499 3590 3503 3425 3425 3491 3466 3360 3350 3410 3385 3452 3502 3282 3530 3401 3410 3405 3305 3283 3374 3382 3346 3383 3395 3507 3385 3449 3337 3384 3358 3454 3330 3418 3401 3445 3343 3468 3386 3331 3436 3421 3275 3354 3299 3457 3364 3416 3387 3371 3396 3345 3407 3316 3477 3392 3338 3322 3249 3362 3370 3288 3445 3382 3213 3333 3172 3328 3393 3455 3246 3330 3342 3339 3295 3442 3243 3376 3242 3286 3413 3280 3430 3291 3428 3477 3285 3369 3273 3461 3310 3424 3291 3388 3410 3333 3383 3334 3326 3368 3334 3380 3422 3370 3314 3415 3364 3465 3413 3357 3436 3509 3522 3414 3472 3402 3451 3393 3501 3447 3423 3436 3435 3533 3449 3537 3383 3533 3464 3477 3591 3437 3593 3392 3428 3519 3528 3498 3446 3597 3518 3473 3502 3623 3570 3641 3532 3589 3578 3547 3593 3778 3642 3590 3596 3540 3586 3589 3572 3499 3793 3570 3613 3686 3618 3668 3662 3644 3615 3578 3517 3615 3580 3732 3676 3577 3622 3585 3612 3672 3708 3706 3616 3702 3675 3693 3736 3675 3639 3777 3708 3845 3736 3737 3809 3778 3833 3725 3749 3796 3606 3854 3878 3790 3976 3823 3918 3747 3799 3843 3680 3831 3840 3964 3912 3868 3965 3909 4022 3914 3963 3902 4067 3985 4024 4053 3973 4097 4079 4133 4176 4151 4276 4267 4284 4170 4380 4383 4473 4414 4639 4658 4698 4794 4703 4791 4905 4815 4767 4810 4746 4773 4655 4590 4430 4465 4353 4257 4141 4065 4067 4027 4077 4082 4101 4024 4078 3963 4026 4005 4089 4064 4244 4214 4159 4132 4385 4214 4264 4409 4392 4476 4474 4419 4483 4515 4481 4632 4651 4571 4536 4413 4229 4344 4317 4115 4159 4111 3991 3912 3830 3735 3718 3664 3736 3611 3674 3634 3741 3554 3529 3451 3536 3537 3614 3422 3600 3483 3516 3470 3504 3394 3538 3452 3418 3340 3387 3437 3432 3402 3461 3400 3457 3337 3369 3334 3390 3342 3326 3414 3430 3479 3352 3437 3411 3271 3444 3338 3330 3312 3437 3419 3375 3308 3352 3379 3433 3356 3253 3317 3425 3391 3307 3282 3176 3303 3225 3309 3309 3284 3208 3224 3327 3265 3295 3219 3286 3254 3348 3324 3221 3208 3283 3328 3362 3142 3214 3166 3083 3267 3256 3142 3282 3184 3247 3341 3233 3229 3150 3199 3242 3219 3164 3220 3220 3217 3310 3154 3161 3149 3223 3169 3181 3235 3164 3110 3199 3187 3101 3210 3130 3112 3207 3093 3232 3202 3222 3102 3175 3144 3204 3242 3091 3082 3277 3166 3186 3156 3150 3159 3155 3135 3126 3160 3140 3065 3147 3190 3097 3157 3150 3187 3094 3152 3110 3142 3096 3182 3225 3163 3209 3227 3179 3111 3192 3109 3053 3196 3120 3220 3145 3094 3170 3215 3079 3088 3197 3095 3163 3208 3155 3217 3069 3088 3112 3094 3036 3056 3063 3159 3017 3079 3147 3176 3186 3124 2941 3054 3146 3113 2993 3041 3176 3094 3110 3095 3076 3153 3060 3096 3084 3017 3142 3036 3168 3044 3116 3027 3097 3052 3049 3015 3079 2989 3096 2940 3063 3065 3043 3020 3185 3024 3084 3002 3191 3073 3019 3032 3055 2956 3089 3012 3087 3113 3003 3061 3211 3108 3118 3123 3128 3159 3056 3062 3055 3032 3129 3045 2983 3103 3140 3055 3019 3098 3122 3035 3118 3060 3003 3092 3079 3106 3149 3111 3115 3047 3083 3110 3048 2970 2963 3118 3095 3075 3034 3122 3005 3077 3171 3073 3055 2946 3048 2970 3114 3066 3083 3029 3180 3101 2989 3107 2976 3071 3114 3050 3067 3086 2974 3052 2970 3020 2996 3001 3044 3015 3036 2998 3112 2999 3027 3088 3014 2928 2969 2889 2973 3053 2987 3004 2901 3012 3013 3027 2973 2945 3049 2921 3004 3002 3060 3005 2919 3028 2925 3016 2944 3018 3096 2896 3017 2945 2977 2992 2951 3069 2980 2958 2932 3029 2856 2891 2964 3041 2963 2944 2989 2980 3051 2941 2974 2931 2957 3050 2855 3001 2964 2943 2974 2970 3012 3016 3034 2961 2947 2908 2912 2932 2821 2921 2945 2969 2874 2962 3001 2945 2957 2957 2930 2995 2946 2838 2877 2954 3095 2926 2890 2829 2928 2872 2925 3000 3001 2863 2882 3018 3038 2974 3001 2842 2918 2922 3054 2840 3004 2834 2862 3021 2932 3030 2946 2918 2865 2793 2907 2832 2927 2885 3062 2935 2960 2865 2848 2861 2913 2901 2810 2957 2901 2963 2843 2923 2838 2858 2985 2883 2996 2964 2898 2811 2933 2793 2946 2939 2916 2917 2922 2892 2848 2849 2881 2872 2883 2888 2852 2807 2952 2904 2885 2803 2935 2884 2864 2895 3008 2833 2836 2794 2883 2788 2969 2951 2882 2877 2932 2937 2864 2853 2890 2911 2918 2884 2942 2829 2878 2912 2850 2911 2902 2885 2802 2828 2882 2797 2818 2843 2892 2912 2850 2958 2889 2867 2894 2804 2915 2904 2954 2966 2913 2863 2934 2940 2849 2943 3019 2913 2847 3009 2859 2867 2990 2933 2891 2828 2891 2916 2879 2812 2932 2921 2837 2949 3004 2845 2897 2793 2844 2932 2966 2858 2984 2802 2950 2902 2878 2952 2939 2888 2850 2910 2873 3004 2930 2946 2911 2948 2969 2962 2890 2938 2978 2905 2882 2869 2930 2873 2921 2959 2872 2862 2885 2994 2882 2986 2960 2937 2983 2914 2889 3002 2940 2901 2922 2928 2919 3004 2837 2845 2775 2868 2990 2809 3019 2868 2985 2902 2868 2956 2854 2928 2843 2839 2863 2834 2902 2912 2853 2886 2837 2867 2916 2919 2810 2928 2741 2786 2800 2886 2824 2851 2784 2799 2729 2854 2838 2813 2749 2783 2814 2877 2796 2748 2901 2768 2801 2796 2836 2700 2780 2805 2749 2702 2811 2762 2823 2713 2692 2683 2781 2770 2769 2793 2761 2724 2698 2734 2696 2677 2740 2728 2709 2849 2807 2655 2665 2719 2744 2711 2814 2703 2676 2736 2697 2679 2615 2643 2682 2659 2681 2667 2668 2575 2693 2628 2731 2657 2639 2618 2606 2616 2537 2632 2665 2590 2603 2602 2589 2644 2657 2595 2560 2610 2503 2630 2592 2626 2514 2545 2479 2547 2589 2533 2672 2497 2579 2610 2609 2523 2545 2582 2410 2472 2561 2401 2594 2458 2438 2490 2684 2503 2427 2591 2515 2481 2456 2476 2471 2489 2494 2529 2474 2456 2406 2480 2505 2556 2463 2480 2449 2446 2488 2402 2512 2402 2469 2444 2517 2516 2480 2383 2535 2456 2336 2399 2419 2510 2425 2414 2351 2450 2511 2422 2350 2419 2427 2417 2453 2361 2408 2428 2367 2493 2296 2338 2437 2326 2477 2461 2385 2325 2357 2276 2367 2422 2338 2412 2444 2371 2402 2468 2401 2361 2457 2350 2371 2299 2403 2369 2418 2369 2390 2353 2308 2393 2425 2379 2352 2344 2356 2451 2312 2421 2368 2425 2352 2357 2367 2453 2287 2332 2379 2283 2336 2449 2331 2407 2395 2305 2407 2393 2367 2392 2463 2417 2423 2359 2353 2302 2329 2232 2376 2455 2351 2302 2308 2431 2294 2369 2329 2416 2358 2378 2401 2289 2294 2267 2339 2344 2393 2398 2324 2392 2319 2386 2295 2355 2420 2348 2394 2300 2294 2378 2341 2363 2315 2364 2330 2419 2362 2390 2322 2355 2386 2363 2318 2381 2302 2347 2405 2409 2373 2387 2412 2317 2393 2303 2366 2339 2388 2295 2372 2344 2394 2346 2389 2386 2305 2360 2341 2358 2418 2316 2411 2418 2340 2311 2394 2360 2366 2385 2353 2354 2367 2239 2429 2369 2352 2346 2380 2371 2459 2420 2321 2433 2371 2337 2403 2362 2350 2367 2348 2372 2343 2399 2336 2386 2371 2408 2339 2395 2423 2346 2375 2385 2382 2343 2435 2348 2355 2366 2388 2296 2320 2265 2389 2350 2297 2350 2356 2389 2407 2422 2297 2290 2365 2341 2311 2341 2390 2453 2349 2368 2344 2384 2311 2398 2286 2377 2351 2402 2308 2314 2220 2319 2312 2299 2362 2401 2302 2346 2272 2246 2251 2378 2248 2352 2238 2305 2371 2234 2332 2370 2428 2235 2301 2337 2212 2309 2305 2258 2336 2298 2247 2243 2414 2322 2201 2302 2195 2289 2191 2230 2228 2213 2269 2255 2248 2392 2189 2278 2204 2258 2222 2215 2212 2287 2229 2160 2224 2224 2173 2113 2236 2267 2130 2175 2169 2133 2241 2252 2246 2228 2210 2168 2159 2175 2229 2222 2145 2154 2203 2117 2179 2232 2213 2034 2184 2129 2164 2178 2050 2148 2162 2152 2144 2125 2124 2099 2238 2177 2148 2125 2150 2073 2134 2171 2152 2080 2127 2148 2184 2016 2101 2092 2037 2036 2171 2149 2084 2082 2133 2076 2053 2129 2145 2099 2128 2127 2079 2115 2141 2116 2105 2128 2122 2137 2160 2140 2152 2128 2201 2170 2131 2060 2194 2060 2247 2128 2180 2170 2135 2168 2162 2234 2219 2263 2165 2293 2250 2274 2244 2259 2307 2310 2379 2334 2440 2430 2452 2463 2497 2510 2428 2591 2605 2602 2551 2742 2711 2777 2715 2742 2717 2765 2804 2655 2679 2685 2572 2652 2628 2514 2547 2529 2392 2499 2396 2374 2288 2334 2241 2320 2210 2244 2221 2206 2251 2149 2228 2237 2278 2300 2174 2268 2248 2324 2285 2332 2217 2210 2291 2206 2205 2232 2228 2287 2201 2103 2154 2221 2097 2060 2188 2142 2098 2134 2044 2063 2134 2088 1972 2053 2106 2001 2044 2043 2139 2078 2112 2064 2035 2022 2106 2144 2071 2046 2065 2129 2087 2121 2190 2144 2197 2192 2211 2202 2298 2195 2399 2220 2258 2304 2276 2400 2376 2363 2380 2432 2450 2482 2495 2531 2558 2591 2618 2668 2840 2732 2838 2901 2955 3006 3136 3191 3237 3311 3434 3694 3432 3834 3657 3747 3729 3730 3602 3575 3445 3490 3346 3289 3129 3134 2949 2924 2765 2704 2573 2520 2608 2599 2391 2505 2303 2441 2377 2363 2367 2357 2322 2337 2287 2276 2401 2302 2329 2352 2332 2414 2434 2447 2468 2487 2463 2412 2431 2469 2474 2414 2486 2379 2418 2397 2349 2326 2358 2308 2283 2302 2343 2283 2313 2279 2235 2139 2312 2233 2194 2168 2123 2161 2090 2124 2111 2078 2094 2122 2120 2108 2045 2010 1970 1972 2058 2055 2006 1921 1987 2016 2008 1992 1982 2021 1965 1912 1917 2030 1982 1968 1884 1870 1934 1962 1924 1952 1925 1984 1845 1939 1927 1897 1983 1958 1983 1866 1890 1906 1887 1897 1901 1949 1878 1838 1866 1768 1829 1885 1809 1901 1897 1846 1776 1852 1899 1853 1896 1813 1863 1833 1772 1869 1912 1827 1845 1785 1767 1789 1932 1827 1872 1864 1825 1788 1825 1818 1772 1788 1830 1803 1800 1766 1733 1791 1808 1841 1864 1869 1785 1843 1761 1865 1866 1869 1812 1786 1770 1867 1830 1825 1844 1858 1739 1768 1820 1802 1779 1828 1787 1854 1762 1798 1790 1835 1817 1768 1830 1837 1834 1823 1830 1756 1742 1804 1739 1809 1822 1765 1823 1814 1773 1794 1805 1810 1782 1712 1820 1797 1819 1836 1777 1830 1763 1730 1718 1837 1840 1741 1811 1808 1839 1750 1719 1754 1767 1755 1830 1786 1765 1741 1734 1885 1733 1866 1840 1794 1836 1811 1671 1889 1685 1775 1823 1826 1756 1855 1773 1814 1740 1789 1763 1795 1786 1814 1798 1818 1750 1940 1823 1826 1782 1750 1770 1755 1756 1783 1790 1742 1705 1810 1776 1843 1780 1833 1704 1769 1804 1793 1813 1817 1776 1879 1808 1764 1761 1751 1722 1787 1785 1781 1685 1792 1724 1747 1772 1772 1860 1685 1821 1824 1815 1773 1864 1757 1724 1778 1799 1735 1768 1799 1714 1812 1844 1743 1828 1726 1785 1798 1749 1817 1747 1906 1757 1738 1852 1779 1773 1810 1813 1776 1832 1772 1853 1779 1840 1810 1931 1862 1799 1809 1768 1791 1772 1837 1771 1903 1716 1748 1702 1815 1851 1884 1732 1794 1813 1800 1851 1760 1805 1755 1822 1853 1778 1775 1791 1787 1776 1852 1843 1842 1863 1921 1889 1910 1906 1898 1913 1901 1983 1957 2067 2037 2087 2121 2147 2085 2183 2287 2210 2300 2345 2379 2363 2418 2449 2485 2536 2683 2631 2791 2834 2991 2959 3046 3130 3144 3275 3352 3625 3624 3767 3972 4199 4346 4569 4660 4750 4936 5323 5477 5555 5534 5896 6045 6214 6282 6322 6308 6278 6034 5947 5834 5780 5241 5065 4844 4598 4458 4298 4058 3678 3606 3408 3320 3091 3104 2950 2785 2756 2628 2799 2704 2741 2623 2694 2673 2677 2685 2772 2699 2722 2694 2765 2715 2818 2758 2814 2765 2780 2763 2822 2776 2831 2839 2910 2838 2815 2792 2918 2642 2718 2732 2810 2729 2784 2764 2624 2736 2731 2672 2629 2471 2648 2513 2569 2496 2520 2472 2473 2340 2367 2353 2268 2309 2180 2264 2085 2238 2101 2072 2045 2066 2063 2051 2049 2055 2037 1947 2079 1992 2008 1906 1879 1890 1981 1915 1844 1868 1891 1941 1813 1964 1853 1849 1782 1792 1850 1868 1814 1847 1739 1783 1847 1833 1815 1822 1852 1775 1856 1783 1759 1752 1766 1793 1829 1767 1716 1735 1802 1800 1857 1711 1830 1707 1823 1785 1788 1691 1701 1729 1759 1746 1741 1735 1680 1831 1673 1683 1764 1725 1768 1835 1828 1709 1774 1743 1719 1677 1774 1798 1641 1748 1791 1764 1789 1810 1721 1652 1750 1703 1694 1709 1687 1733 1753 1789 1833 1750 1749 1684 1675 1731 1754 1720 1780 1776 1743 1733 1714 1669 1692 1709 1721 1703 1705 1707 1801 1655 1712 1720 1721 1686 1736 1706 1761 1750 1699 1739 1703 1641 1645 1652 1734 1735 1709 1704 1668 1686 1749 1772 1745 1716 1697 1694 1684 1708 1710 1718 1717 1703 1741 1667 1675 1650 1779 1685 1778 1713 1744 1782 1616 1728 1669 1723 1727 1733 1643 1751 1703 1758 1733 1773 1741 1722 1734 1634 1704 1688 1747 1774 1717 1644 1750 1717 1630 1667 1674 1704 1720 1714 1778 1637 1743 1709 1724 1724 1784 1758 1696 1744 1758 1773 1799 1737 1750 1704 1789 1694 1718 1728 1733 1727 1716 1732 1791 1729 1711 1679 1714 1716 1733 1672 1759 1749 1677 1657 1705 1721 1649 1690 1761 1763 1688 1745 1720 1693 1723 1714 1663 1744 1668 1644 1604 1714 1683 1659 1674 1743 1682 1737 1640 1757 1797 1801 1667 1816 1738 1763 1779 1699 1711 1719 1686 1724 1627 1703 1741 1678 1790 1757 1652 1628 1697 1756 1703 1748 1782 1772 1774 1728 1752 1750 1720 1679 1698 1672 1754 1663 1715 1661 1772 1721 1698 1693 1738 1752 1593 1676 1757 1712 1685 1601 1709 1669 1644 1632 1669 1732 1653 1657 1745 1664 1673 1796 1643 1726 1618 1691 1638 1627 1618 1718 1668 1718 1634 1664 1732 1640 1655 1611 1686 1666 1642 1726 1738 1731 1686 1667 1669 1687 1677 1580 1713 1636 1662 1602 1598 1650 1635 1619 1655 1673 1677 1620 1652 1623 1675 1679 1650 1689 1600 1648 1632 1687 1663 1679 1626 1671 1625 1626 1620 1659 1648 1646 1638 1601 1692 1625 1673 1605 1668 1623 1644 1672 1663 1675 1616 1682 1638 1630 1604 1629 1594 1638 1673 1617 1640 1638 1619 1599 1644 1552 1651 1684 1574 1712 1702 1631 1691 1600 1608 1617 1734 1657 1659 1678 1603 1687 1639 1600 1620 1639 1657 1599 1572 1640 1642 1699 1663 1590 1623 1675 1629 1619 1609 1632 1681 1680 1643 1678 1641 1687 1639 1698 1674 1662 1643 1622 1618 1685 1575 1660 1627 1599 1600 1645 1637 1610 1702 1608 1635 1675 1640 1597 1634 1600 1624 1610 1660 1623 1635 1579 1614 1705 1697 1592 1716 1677 1682 1676 1639 1590 1717 1607 1667 1720 1691 1606 1710 1632 1614 1677 1631 1678 1600 1631 1564 1613 1601 1575 1707 1642 1658 1663 1678 1665 1570 1653 1570 1638 1571 1609 1682 1614 1619 1643 1662 1603 1677 1658 1592 1628 1577 1651 1628 1670 1629 1596 1613 1641 1599 1635 1600 1628 1595 1711 1669 1636 1653 1634 1617 1562 1667 1643 1581 1675 1566 1690 1659 1681 1659 1637 1625 1637 1597 1629 1638 1636 1568 1621 1625 1631 1668 1673 1595 1621 1564 1651 1610 1664 1682 1701 1652 1607 1584 1694 1666 1639 1617 1646 1693 1584 1611 1653 1671 1625 1629 1599 1666 1611 1649 1592 1647 1589 1575 1632 1609 1665 1578 1618 1641 1655 1633 1655 1630 1579 1669 1642 1637 1607 1640 1627 1621 1631 1640 1639 1633 1631 1661 1652 1592 1655 1695 1694 1711 1692 1658 1586 1599 1662 1563 1572 1660 1595 1640 1653 1587 1583 1587 1596 1693 1587 1639 1651 1590 1654 1608 1654 1624 1607 1705 1674 1608 1638 1574 1544 1678 1657 1619 1603 1661 1705 1656 1641 1714 1629 1643 1699 1652 1583 1664 1763 1562 1701 1614 1660 1640 1669 1603 1680 1655 1650 1615 1645 1662 1642 1653 1637 1608 1620 1645 1639 1642 1593 1547 1695 1642 1701 1676 1588 1701 1594 1646 1608 1619 1594 1677 1715 1597 1646 1638 1603 1643 1685 1521 1608 1669 1651 1686 1538 1650 1600 1637 1571 1614 1669 1628 1704 1641 1582 1629 1591 1595 1619 1614 1642 1610 1664 1667 1661 1567 1579 1618 1590 1621 1603 1617 1693 1667 1643 1642 1671 1644 1670 1636 1600 1684 1597 1725 1669 1717 1639 1613 1644 1653 1619 1597 1551 1636 1545 1672 1679 1672 1675 1614 1721 1609 1621 1626 1782 1715 1638 1679 1644 1678 1619 1631 1660 1618 1607 1655 1582 1621 1628 1650 1603 1641 1666 1640 1602 1606 1657 1526 1608 1677 1627 1589 1663 1571 1611 1606 1637 1656 1587 1675 1604 1608 1743 1566 1685 1637 1639 1578 1751 1634 1667 1670 1652 1600 1671 1613 1625 1628 1654 1618 1637 1700 1654 1603 1662 1697 1586 1609 1688 1688 1748 1685 1681 1599 1642 1580 1639 1654 1642 1649 1654 1570 1653 1707 1623 1708 1648 1720 1719 1689 1684 1692 1655 1720 1663 1677 1724 1678 1771 1682 1780 1647 1706 1833 1769 1808 1750 1704 1775 1771 1766 1836 1892 1856 1882 1921 1898 1920 1934 1992 2010 2038 2019 2026 2053 2110 2090 2080 2093 2068 2121 2136 2213 2089 2057 2109 2109 2059 2076 2033 1981 1991 2025 1933 1836 1834 1841 1829 1781 1821 1807 1734 1703 1751 1712 1614 1662 1782 1696 1717 1696 1640 1643 1715 1644 1672 1674 1784 1602 1644 1723 1564 1616 1695 1654 1625 1655 1650 1718 1688 1694 1628 1625 1652 1650 1690 1712 1707 1683 1649 1698 1675 1633 1587 1680 1588 1720 1687 1704 1598 1649 1687 1748 1794 1760 1710 1709 1688 1731 1697 1693 1682 1754 1621 1783 1619 1765 1700 1721 1700 1655 1671 1720 1719 1823 1705 1678 1803 1774 1792 1770 1809 1705 1744 1732 1717 1796 1739 1855 1764 1687 1713 1760 1662 1696 1724 1664 1759 1718 1680 1735 1690 1676 1742 1755 1668 1673 1718 1722 1654 1697 1613 1636 1663 1696 1614 1704 1730 1752 1731 1676 1694 1678 1659 1625 1581 1679 1682 1642 1692 1678 1685 1693 1581 1688 1616 1680 1661 1650 1713 1611 1624 1609 1603 1616 1633 1630 1580 1661 1664 1655 1635 1642 1680 1618 1603 1630 1654 1642 1640 1638 1618 1616 1675 1656 1635 1616 1675 1586 1635 1620 1615 1642 1550 1608 1711 1679 1627 1623 1626 1657 1697 1715 1631 1629 1672 1690 1639 1678 1553 1677 1635 1599 1626 1593 1663 1636 1671 1714 1670 1626 1626 1639 1648 1638 1581 1679 1697 1660 1694 1644 1703 1674 1677 1640 1627 1649 1633 1712 1676 1744 1688 1622 1755 1690 1660 1601 1685 1623 1635 1666 1644 1612 1623 1644 1719 1582 1692 1625 1701 1645 1663 1672 1653 1613 1603 1638 1624 1661 1659 1567 1622 1716 1636 1700 1659 1669 1754 1686 1691 1656 1598 1653 1585 1638 1599 1682 1612 1667 1606 1571 1655 1701 1601 1684 1603 1692 1673 1614 1606 1664 1617 1628 1648 1665 1708 1623 1710 1654 1700 1672 1652 1719 1651 1641 1651 1654 1557 1680 1693 1710 1735 1658 1787 1678 1668 1653 1695 1722 1659 1699 1672 1702 1662 1725 1734 1667 1746 1668 1769 1793 1750 1760 1773 1787 1762 1761 1833 1842 1718 1803 1850 1859 1914 1938 1932 1969 1913 2017 2052 2102 2017 2083 2266 2198 2253 2188 2382 2472 2357 2584 2496 2615 2708 2840 2953 3116 3030 3164 3320 3325 3389 3437 3599 3675 3688 3982 4095 4058 4179 4197 4085 4200 4079 4118 4033 4040 3955 3809 3833 3564 3568 3483 3285 3317 3123 3011 2937 2830 2817 2653 2676 2550 2460 2393 2345 2326 2288 2228 2265 2151 2131 2091 2081 2142 1922 2085 2031 1948 2023 1956 2053 2055 1990 2009 2060 2057 1953 2004 2070 1995 2084 2047 2012 2015 2035 2088 2087 2168 2091 2160 2047 2105 2200 2198 2226 2244 2124 2271 2097 2204 2219 2202 2184 2206 2130 2141 2229 2142 2167 2210 2090 2153 2111 2082 2094 2120 2094 2199 2135 2159 2063 2146 2106 2054 2135 2101 2043 2095 2126 2149 2096 2091 2076 2079 2096 2112 2048 2073 2179 2113 2020 2115 2107 2035 1971 2042 2105 2178 2134 2008 2051 1986 2042 2021 1974 1994 1921 2005 2001 2059 2043 1972 1971 2002 1858 1859 1956 1897 1869 1912 1889 1891 1896 1819 1821 1824 1825 1769 1816 1824 1771 1789 1800 1820 1801 1633 1755 1766 1756 1731 1664 1793 1716 1778 1830 1824 1737 1755 1713 1822 1754 1711 1727 1747 1658 1688 1716 1785 1713 1665 1752 1735 1749 1650 1685 1744 1696 1701 1680 1788 1662 1838 1705 1763 1773 1705 1747 1712 1678 1692 1735 1751 1794 1760 1761 1786 1807 1857 1809 1878 1845 1841 1875 1865 1850 1889 1855 1883 1867 1959 1889 1885 1896 1966 1944 1965 1940 1955 1868 1943 1879 1854 1919 1852 1887 1860 1870 1864 1750 1749 1774 1774 1725 1815 1807 1762 1794 1737 1709 1724 1715 1700 1743 1686 1693 1714 1718 1630 1717 1687 1657 1753 1653 1723 1698 1655 1671 1724 1578 1686 1790 1689 1682 1678 1718 1659 1760 1693 1716 1723 1705 1712 1760 1742 1717 1741 1716 1702 1734 1714 1684 1721 1722 1690 1663 1738 1766 1685 1745 1736 1664 1722 1671 1713 1742 1702 1693 1717 1650 1641 1762 1691 1641 1667 1737 1645 1761 1685 1637 1717 1661 1726 1727 1648 1633 1596 1714 1678 1604 1679 1653 1671 1670 1651 1737 1577 1575 1609 1637 1604 1751 1616 1612 1641 1615 1647 1571 1676 1715 1622 1664 1609 1674 1686 1688 1633 1681 1602 1631 1660 1583 1618 1646 1610 1605 1706 1698 1671 1596 1706 1633 1653 1641 1656 1584 1543 1626 1664 1691 1646 1647 1644 1646 1610 1657 1663 1607 1684 1614 1569 1620 1558 1620 1572 1604 1660 1556 1654 1625 1629 1611 1631 1638 1557 1585 1569 1614 1607 1570 1683 1627 1651 1606 1622 1603 1621 1617 1642 1607 1616 1597 1670 1602 1656 1661 1627 1703 1574 1641 1639 1578 1621 1586 1651 1615 1602 1579 1644 1584 1625 1594 1566 1615 1598 1657 1614 1622 1635 1608 1554 1652 1653 1636 1648 1544 1632 1576 1623 1607 1654 1619 1631 1613 1602 1592 1629 1483 1590 1557 1586 1647 1596 1531 1580 1629 1590 1580 1556 1530 1561 1647 1622 1616 1644 1652 1644 1680 1546 1556 1591 1673 1589 1582 1618 1615 1551 1561 1568 1572 1623 1620 1550 1622 1553 1669 1639 1660 1640 1548 1616 1618 1621 1644 1602 1568 1552 1589 1549 1512 1555 1638 1605 1671 1565 1615 1626 1731 1632 1603 1704 1653 1567 1603 1640 1693 1620 1596 1612 1592 1613 1616 1633 1609 1604 1588 1533 1635 1623 1711 1547 1619 1560 1583 1574 1648 1566 1632 1595 1590 1583 1723 1650 1620 1589 1596 1650 1577 1652 1715 1654 1626 1583 1608 1643 1609 1616 1649 1604 1590 1606 1598 1584 1546 1612 1639 1589 1551 1610 1634 1652 1588 1624 1609 1598 1651 1565 1604 1591 1601 1552 1588 1625 1583 1590 1601 1651 1551 1622 1627 1553 1577 1527 1617 1568 1632 1615 1648 1587 1586 1550 1574 1595 1604 1600 1588 1603 1610 1543 1603 1636 1537 1589 1563 1589 1682 1629 1542 1607 1646 1610 1626 1661 1603 1598 1553 1528 1605 1688 1576 1605 1639 1593 1652 1582 1620 1620 1584 1558 1602 1543 1604 1583 1670 1564 1604 1528 1566 1642 1611 1598 1586 1653 1554 1692 1536 1630 1593 1552 1556 1537 1651 1541 1641 1613 1635 1598 1572 1633 1621 1554 1623 1622 1590 1604 1569 1621 1562 1657 1625 1603 1630 1640 1522 1606 1603 1659 1644 1639 1597 1611 1653 1642 1590 1663 1524 1654 1578 1594 1575 1675 1565 1552 1645 1568 1580 1560 1669 1587 1619 1591 1602 1589 1638 1573 1587 1597 1596 1612 1572 1589 1634 1642 1603 1645 1651 1664 1653 1631 1599 1546 1611 1612 1663 1655 1616 1642 1564 1598 1655 1597 1626 1693 1633 1650 1638 1693 1624 1679 1620 1637 1649 1664 1613 1686 1696 1651 1619 1589 1649 1693 1631 1756 1586 1718 1662 1679 1790 1534 1668 1641 1759 1719 1690 1643 1669 1748 1651 1742 1665 1673 1686 1570 1667 1734 1611 1612 1659 1575 1623 1679 1650 1678 1596 1679 1691 1646 1634 1708 1629 1664 1670 1681 1657 1768 1657 1633 1648 1656 1745 1698 1725 1786 1791 1741 1775 1785 1794 1880 1843 1810 1895 1825 1902 1791 1858 1906 1940 1987 1894 1861 1904 1990 1993 1971 1895 1955 1921 1948 1970 1961 1899 1910 1842 1921 1858 1938 1897 1850 1804 1831 1785 1814 1783 1778 1769 1763 1691 1749 1720 1773 1710 1718 1708 1634 1717 1637 1705 1725 1732 1734 1722 1633 1666 1668 1731 1666 1635 1638 1666 1632 1667 1690 1670 1660 1662 1721 1667 1648 1698 1716 1683 1715 1651 1641 1735 1605 1668 1679 1693 1740 1721 1718 1693 1689 1721 1701 1691 1787 1683 1708 1692 1747 1702 1741 1755 1729 1686 1762 1796 1731 1699 1761 1718 1732 1716 1768 1719 1701 1778 1749 1771 1749 1766 1695 1701 1706 1656 1720 1756 1730 1741 1689 1719 1602 1726 1695 1707 1607 1723 1772 1720 1711 1674 1690 1705 1751 1719 1715 1706 1790 1690 1779 1703 1758 1789 1662 1726 1671 1726 1753 1677 1713 1758 1739 1650 1735 1687 1673 1708 1728 1724 1712 1620 1611 1734 1654 1679 1705 1657 1607 1667 1726 1705 1644 1626 1728 1630 1643 1638 1640 1686 1670 1646 1699 1670 1659 1653 1653 1576 1598 1675 1739 1667 1600 1605 1641 1567 1681 1660 1664 1665 1653 1703 1573 1600 1663 1741 1606 1624 1612 1644 1595 1710 1638 1720 1732 1618 1614 1614 1522 1646 1650 1685 1620 1631 1694 1695 1616 1740 1653 1712 1717 1728 1767 1780 1757 1751 1862 1774 1733 1705 1719 1762 1730 1751 1771 1832 1804 1823 1840 1819 1719 1763 1891 1855 1864 1846 1842 1912 1912 2007 1881 1961 1951 2031 1950 2091 2019 2103 2089 2094 2194 2263 2213 2203 2187 2202 2238 2238 2252 2229 2220 2137 2164 2195 2232 2122 2090 2097 2062 2130 2105 2020 2125 2051 2004 1994 1973 1897 1929 1878 1785 1828 1842 1862 1796 1838 1755 1740 1775 1739 1775 1654 1757 1716 1755 1674 1673 1658 1728 1670 1740 1694 1616 1703 1667 1729 1678 1657 1703 1757 1700 1714 1752 1662 1710 1687 1727 1650 1714 1654 1672 1734 1727 1682 1733 1708 1697 1649 1773 1727 1765 1691 1687 1652 1774 1736 1772 1670 1744 1714 1697 1668 1723 1813 1699 1736 1765 1695 1762 1798 1719 1686 1705 1744 1697 1707 1739 1686 1728 1749 1747 1764 1743 1693 1695 1700 1767 1680 1771 1743 1696 1738 1666 1635 1748 1687 1658 1721 1661 1679 1551 1702 1680 1686 1659 1618 1668 1717 1747 1710 1703 1605 1729 1696 1643 1662 1655 1605 1711 1641 1638 1666 1588 1666 1633 1738 1634 1689 1667 1670 1654 1680 1690 1677 1746 1600 1688 1749 1701 1733 1719 1724 1686 1734 1678 1707 1671 1698 1754 1689 1665 1705 1758 1662 1799 1737 1713 1795 1711 1837 1779 1733 1749 1741 1783 1783 1791 1767 1754 1831 1772 1795 1773 1836 1849 1899 1795 1795 1730 1815 1716 1779 1736 1842 1719 1722 1768 1703 1733 1753 1702 1668 1697 1697 1698 1687 1800 1701 1607 1607 1693 1654 1734 1609 1570 1650 1658 1662 1601 1620 1598 1610 1673 1667 1636 1611 1568 1597 1705 1633 1593 1585 1585 1674 1597 1546 1606 1650 1667 1603 1685 1632 1598 1613 1670 1584 1567 1588 1622 1612 1578 1646 1603 1674 1544 1610 1646 1644 1636 1561 1566 1570 1528 1518 1681 1612 1612 1590 1560 1605 1552 1570 1534 1599 1610 1546 1632 1618 1674 1599 1579 1606 1631 1617 1678 1671 1621 1651 1611 1520 1625 1590 1572 1681 1551 1664 1708 1657 1694 1627 1669 1495 1613 1604 1594 1618 1635 1565 1609 1562 1701 1661 1529 1566 1596 1586 1545 1604 1645 1686 1606 1552 1533 1744 1655 1599 1673 1668 1646 1647 1634 1570 1613 1696 1573 1602 1651 1671 1579 1732 1625 1703 1679 1653 1611 1626 1682 1595 1593 1620 1543 1645 1667 1576 1551 1706 1553 1655 1630 1579 1553 1621 1645 1632 1646 1619 1605 1575 1563 1663 1523 1608 1595 1641 1569 1583 1653 1642 1612 1561 1549 1588 1610 1588 1555 1542 1546 1630 1630 1625 1664 1607 1540 1569 1711 1637 1601 1573 1522 1633 1627 1628 1652 1557 1537 1567 1600 1664 1666 1644 1486 1590 1582 1529 1573 1566 1617 1521 1520 1559 1556 1550 1632 1616 1569 1620 1671 1611 1580 1596 1574 1555 1547 1623 1578 1615 1575 1577 1606 1651 1553 1621 1616 1561 1527 1577 1625 1538 1568 1526 1601 1586 1613 1602 1639 1591 1639 1550 1607 1571 1614 1581 1642 1585 1552 1529 1560 1588 1592 1599 1599 1569 1572 1569 1527 1618 1601 1604 1593 1567 1492 1583 1583 1603 1633 1610 1600 1582 1592 1606 1578 1545 1518 1610 1630 1553 1590 1550 1564 1557 1559 1707 1571 1617 1629 1612 1513 1527 1524 1631 1525 1512 1621 1557 1546 1626 1537 1606 1556 1515 1558 1594 1554 1522 1572 1559 1522 1639 1666 1574 1591 1565 1602 1682 1596 1649 1561 1578 1569 1581 1528 1556 1630 1577 1627 1652 1533 1650 1634 1568 1595 1548 1557 1543 1650 1531 1591 1570 1558 1508 1580 1514 1593 1598 1607 1579 1589 1545 1507 1534 1543 1552 1604 1597 1627 1634 1546 1546 1628 1579 1607 1616 1615 1586 1650 1585 1543 1564 1640 1587 1621 1571 1667 1553 1614 1608 1604 1485 1602 1622 1563 1578 1656 1551 1609 1656 1588 1533 1653 1612 1659 1550 1582 1605 1619 1561 1661 1651 1545 1568 1597 1533 1661 1623 1641 1545 1623 1514 1585 1537 1625 1605 1594 1607 1590 1645 1586 1594 1668 1578 1538 1687 1594 1603 1649 1618 1535 1645 1669 1576 1567 1615 1517 1594 1541 1559 1581 1617 1628 1594 1537 1599 1633 1619 1685 1627 1606 1622 1646 1676 1627 1645 1656 1689 1629 1694 1680 1601 1719 1685 1623 1663 1671 1627 1683 1674 1662 1666 1627 1679 1687 1665 1682 1673 1579 1723 1611 1670 1632 1644 1585 1580 1640 1588 1610 1710 1637 1669 1646 1562 1634 1565 1576 1593 1658 1558 1564 1584 1599 1676 1635 1585 1650 1650 1578 1611 1590 1670 1678 1564 1644 1564 1615 1566 1549 1589 1597 1569 1578 1534 1590 1630 1588 1643 1550 1573 1580 1573 1608 1606 1579 1570 1672 1627 1604 1650 1630 1586 1694 1587 1599 1537 1534 1631 1538 1662 1580 1538 1523 1599 1574 1628 1555 1557 1602 1574 1561 1654 1673 1567 1544 1591 1574 1590 1636 1584 1587 1678 1639 1641 1529 1572 1643 1626 1549 1587 1525 1627 1544 1513 1651 1568 1495 1677 1587 1622 1625 1612 1574 1619 1553 1559 1599 1625 1650 1576 1567 1601 1659 1615 1655 1627 1568 1596 1606 1618 1616 1654 1563 1565 1572 1594 1665 1600 1661 1657 1569 1606 1579 1569 1602 1571 1679 1501 1581 1611 1574 1620 1595 1580 1579 1601 1535 1625 1631 1643 1575 1612 1572 1592 1545 1612 1623 1493 1558 1560 1577 1535 1539 1636 1598 1561 1601 1617 1605 1575 1606 1572 1572 1595 1560 1618 1618 1554 1645 1584 1605 1572 1576 1582 1575 1642 1604 1687 1545 1496 1483 1611 1595 1564 1528 1538 1609 1590 1644 1576 1600 1539 1620 1596 1560 1650 1531 1634 1538 1647 1532 1664 1645 1618 1662 1613 1667 1541 1531 1584 1640 1578 1644 1564 1647 1625 1550 1658 1600 1569 1631 1597 1607 1596 1556 1580 1666 1607 1676 1591 1651 1710 1641 1590 1597 1635 1719 1629 1678 1636 1670 1649 1652 1649 1725 1738 1712 1669 1723 1699 1600 1773 1715 1704 1716 1750 1757 1772 1729 1735 1792 1831 1773 1895 1916 1883 1757 1775 1896 1821 1850 1787 1803 1837 1759 1798 1799 1855 1782 1747 1818 1800 1767 1741 1769 1765 1752 1737 1683 1786 1796 1728 1695 1643 1725 1716 1691 1746 1679 1699 1655 1755 1677 1700 1605 1666 1606 1663 1560 1632 1638 1621 1657 1701 1665 1616 1624 1596 1627 1636 1704 1696 1562 1617 1695 1624 1636 1687 1698 1664 1643 1643 1670 1530 1662 1613 1580 1504 1596 1618 1672 1620 1628 1646 1601 1599 1631 1603 1604 1600 1595 1643 1567 1583 1559 1641 1647 1623 1594 1659 1621 1577 1568 1639 1610 1649 1644 1641 1597 1572 1630 1593 1631 1627 1638 1602 1707 1643 1668 1673 1585 1668 1577 1664 1533 1656 1553 1591 1573 1614 1579 1548 1594 1642 1639 1714 1616 1639 1601 1694 1615 1590 1552 1614 1627 1667 1626 1617 1706 1631 1659 1587 1639 1615 1646 1559 1588 1656 1577 1614 1619 1606 1614 1602 1687 1591 1656 1642 1659 1598 1587 1622 1659 1631 1630 1609 1614 1641 1676 1601 1642 1598 1703 1632 1643 1552 1609 1605 1624 1603 1662 1548 1667 1643 1584 1615 1629 1601 1643 1617 1599 1589 1687 1622 1551 1612 1649 1589 1601 1636 1639 1587 1637 1714 1662 1633 1639 1588 1513 1613 1587 1607 1618 1583 1635 1587 1624 1587 1558 1611 1616 1569 1569 1531 1629 1528 1623 1626 1613 1583 1614 1566 1614 1588 1648 1588 1570 1583 1553 1652 1667 1602 1602 1557 1621 1613 1631 1615 1626 1637 1551 1617 1596 1590 1578 1656 1497 1626 1607 1615 1581 1585 1519 1557 1591 1589 1565 1662 1648 1581 1658 1544 1622 1579 1615 1600 1592 1639 1484 1594 1556 1596 1638 1680 1541 1617 1628 1576 1574 1551 1668 1582 1489 1588 1522 1606 1567 1664 1589 1564 1537 1617 1556 1579 1621 1555 1600 1678 1559 1587 1650 1573 1676 1575 1520 1595 1632 1573 1538 1520 1584 1599 1624 1636 1600 1607 1645 1519 1586 1599 1646 1595 1584 1636 1556 1616 1587 1597 1616 1588 1632 1560 1600 1571 1554 1575 1566 1619 1592 1590 1615 1583 1555 1579 1591 1558 1576 1564 1569 1642 1581 1587 1585 1574 1593 1541 1544 1643 1565 1537 1675 1582 1572 1602 1651 1549 1577 1564 1579 1577 1621 1622 1532 1641 1551 1556 1639 1629 1519 1599 1562 1547 1583 1556 1620 1567 1629 1563 1597 1601 1570 1580 1689 1599 1589 1564 1580 1611 1603 1587 1623 1583 1564 1620 1641 1583 1662 1540 1631 1617 1530 1526 1568 1588 1659 1578 1604 1539 1628 1613 1581 1557 1552 1603 1533 1623 1644 1602 1552 1585 1554 1519 1619 1622 1590 1603 1582 1572 1595 1539 1591 1558 1543 1498 1656 1615 1589 1604 1611 1583 1548 1602 1668 1481 1591 1619 1594 1622 1549 1590 1546 1545 1525 1576 1617 1623 1635 1521 1604 1518 1472 1645 1567 1613 1603 1655 1587 1592 1525 1575 1681 1591 1510 1549 1651 1506 1613 1569 1610 1648 1554 1607 1645 1639 1515 1614 1608 1541 1581 1567 1594 1596 1552 1677 1646 1600 1554 1658 1580 1599 1600 1609 1610 1614 1617 1646 1585 1636 1645 1607 1650 1601 1547 1554 1628 1557 1644 1594 1596 1604 1547 1569 1627 1605 1592 1550 1582 1530 1628 1644 1604 1651 1542 1553 1635 1595 1641 1579 1594 1583 1571 1546 1560 1593 1559 1560 1624 1513 1566 1660 1550 1540 1641 1626 1576 1587 1643 1624 1660 1543 1618 1664 1581 1615 1596 1587 1578 1575 1672 1642 1577 1646 1619 1571 1632 1637 1608 1558 1537 1592 1608 1651 1630 1639 1585 1629 1543 1606 1561 1545 1531 1599 1582 1540 1590 1597 1604 1595 1526 1620 1635 1649 1613 1626 1600 1659 1605 1688 1628 1615 1701 1645 1646 1630 1606 1647 1594 1627 1669 1624 1643 1655 1651 1592 1683 1635 1687 1677 1677 1697 1685 1609 1640 1599 1611 1642 1658 1581 1661 1598 1607 1679 1635 1704 1566 1711 1685 1723 1684 1759 1624 1669 1659 1606 1678 1660 1701 1614 1721 1740 1606 1614 1685 1653 1681 1625 1670 1671 1662 1683 1664 1691 1673 1770 1678 1664 1655 1645 1717 1695 1756 1612 1687 1627 1732 1732 1732 1726 1715 1724 1639 1690 1757 1678 1651 1739 1727 1663 1681 1637 1699 1654 1740 1722 1671 1674 1725 1622 1616 1637 1724 1684 1608 1648 1681 1585 1680 1669 1638 1626 1634 1579 1566 1655 1567 1665 1593 1650 1656 1614 1725 1577 1575 1617 1585 1647 1636 1608 1679 1495 1682 1617 1631 1598 1638 1731 1601 1633 1629 1532 1590 1631 1644 1667 1609 1554 1622 1586 1553 1609 1627 1691 1715 1585 1675 1629 1673 1719 1594 1686 1639 1694 1653 1656 1601 1579 1623 1586 1631 1665 1660 1619 1617 1600 1613 1636 1639 1655 1668 1548 1649 1598 1699 1649 1656 1641 1646 1634 1632 1630 1663 1600 1736 1668 1664 1583 1676 1619 1636 1661 1695 1677 1596 1745 1725 1766 1668 1669 1659 1685 1666 1727 1669 1667 1653 1650 1657 1673 1656 1599 1663 1667 1696 1703 1698 1672 1703 1623 1612 1756 1670 1676 1660 1687 1696 1597 1571 1668 1760 1660 1672 1682 1740 1653 1684 1700 1652 1709 1693 1676 1566 1666 1707 1699 1717 1757 1667 1664 1705 1710 1733 1685 1705 1737 1728 1673 1725 1643 1759 1701 1764 1707 1694 1767 1705 1775 1732 1797 1779 1813 1796 1802 1829 1847 1889 1856 1893 1838 1909 1886 1928 1913 1910 1984 1943 1922 2064 1965 1944 2013 2162 2011 1980 2056 2034 2089 2081 2034 2160 2055 2167 2078 2098 1999 2166 2140 2018 2040 2067 2035 2074 1932 2089 2024 1990 1996 2057 2038 1944 1963 2065 1896 1982 1990 1930 1919 1900 1884 1961 1949 1873 1824 1892 1892 1822 1805 1856 1785 1732 1726 1756 1748 1798 1704 1727 1790 1708 1720 1807 1698 1688 1687 1698 1741 1707 1672 1647 1701 1733 1653 1652 1687 1677 1694 1742 1692 1646 1740 1649 1679 1674 1604 1761 1635 1618 1657 1608 1686 1687 1690 1607 1679 1713 1761 1702 1654 1670 1648 1636 1735 1639 1633 1661 1679 1677 1611 1675 1661 1707 1657 1667 1704 1691 1667 1675 1754 1680 1707 1688 1737 1634 1710 1718 1667 1704 1705 1655 1675 1709 1762 1732 1716 1698 1720 1690 1684 1710 1727 1670 1709 1773 1735 1649 1798 1676 1749 1781 1790 1709 1707 1745 1804 1742 1751 1693 1776 1769 1767 1750 1713 1795 1796 1844 1787 1739 1717 1762 1730 1703 1770 1756 1769 1685 1728 1724 1792 1727 1787 1672 1690 1729 1684 1779 1751 1740 1748 1729 1629 1657 1732 1753 1721 1748 1782 1668 1778 1758 1722 1668 1736 1772 1748 1779 1771 1817 1709 1685 1678 1703 1665 1691 1705 1683 1629 1730 1726 1746 1722 1747 1669 1686 1723 1684 1741 1751 1653 1771 1707 1697 1713 1732 1767 1702 1628 1660 1713 1656 1748 1704 1676 1724 1696 1713 1706 1739 1724 1741 1669 1737 1659 1736 1643 1651 1681 1703 1631 1693 1680 1709 1680 1637 1637 1688 1665 1693 1683 1666 1718 1685 1596 1718 1748 1627 1628 1642 1556 1652 1546 1672 1649 1584 1626 1679 1687 1615 1619 1655 1660 1664 1625 1574 1676 1696 1656 1584 1697 1615 1668 1687 1696 1693 1646 1643 1543 1555 1653 1638 1631 1600 1739 1751 1642 1617 1666 1683 1675 1711 1657 1658 1676 1659 1681 1620 1637 1693 1630 1672 1654 1678 1650 1628 1638 1651 1652 1596 1671 1630 1644 1599 1673 1706 1644 1690 1603 1606 1695 1608 1585 1591 1682 1544 1612 1686 1627 1607 1657 1609 1706 1644 1677 1603 1632 1608 1590 1636 1654 1636 1710 1682 1619 1622 1711 1645 1622 1614 1629 1661 1615 1623 1600 1671 1667 1597 1598 1590 1623 1651 1580 1600 1568 1738 1649 1611 1531 1636 1576 1657 1619 1664 1703 1634 1581 1646 1631 1599 1590 1599 1639 1594 1607 1676 1521 1658 1652 1621 1645 1577 1657 1651 1682 1672 1674 1687 1567 1642 1561 1636 1658 1658 1562 1644 1611 1682 1583 1627 1616 1643 1596 1582 1603 1612 1645 1606 1557 1668 1669 1642 1545 1667 1553 1583 1687 1641 1553 1602 1611 1566 1642 1581 1700 1678 1543 1638 1575 1543 1581 1615 1562 1599 1586 1618 1714 1622 1586 1603 1715 1682 1595 1680 1658 1568 1599 1612 1664 1596 1604 1602 1654 1620 1656 1575 1641 1606 1668 1685 1584 1650 1629 1629 1642 1653 1596 1650 1621 1640 1634 1580 1617 1628 1629 1632 1662 1613 1705 1655 1664 1558 1582 1615 1626 1564 1596 1604 1653 1646 1608 1585 1621 1610 1715 1617 1615 1626 1641 1591 1624 1586 1557 1535 1595 1573 1613 1583 1552 1695 1607 1653 1488 1629 1607 1593 1650 1670 1597 1670 1638 1581 1599 1543 1598 1710 1638 1597 1584 1576 1584 1614 1631 1613 1599 1712 1553 1630 1529 1602 1612 1570 1672 1502 1622 1570 1694 1641 1638 1676 1607 1607 1590 1653 1576 1655 1614 1636 1675 1580 1615 1631 1588 1638 1632 1718 1598 1632 1617 1677 1710 1615 1603 1656 1679 1593 1636 1617 1607 1699 1640 1666 1645 1701 1728 1708 1600 1632 1624 1578 1713 1595 1701 1618 1678 1716 1688 1674 1722 1653 1615 1743 1632 1620 1693 1648 1586 1666 1586 1667 1676 1684 1607 1683 1688 1646 1672 1676 1624 1685 1721 1728 1630 1682 1739 1620 1629 1594 1645 1613 1621 1673 1579 1670 1628 1666 1618 1664 1633 1634 1602 1733 1678 1632 1622 1700 1751 1579 1688 1674 1600 1557 1601 1606 1657 1598 1571 1694 1646 1645 1620 1666 1706 1582 1636 1608 1635 1692 1574 1626 1527 1562 1652 1633 1665 1641 1623 1629 1721 1643 1661 1622 1563 1637 1575 1623 1555 1637 1551 1658 1569 1628 1607 1571 1659 1600 1595 1603 1609 1563 1598 1623 1639 1681 1621 1630 1652 1494 1648 1696 1663 1654 1679 1591 1596 1558 1693 1627 1595 1534 1567 1623 1589 1587 1667 1646 1567 1640 1589 1597 1573 1648 1644 1597 1612 1631 1656 1601 1642 1568 1730 1650 1616 1625 1586 1615 1616 1569 1716 1552 1684 1569 1682 1596 1646 1680 1662 1622 1620 1583 1626 1613 1658 1740 1554 1664 1637 1650 1630 1664 1648 1585 1556 1646 1630 1580 1653 1614 1600 1687 1661 1570 1691 1622 1641 1560 1679 1659 1596 1589 1630 1613 1687 1607 1677 1652 1607 1562 1619 1616 1650 1655 1642 1605 1655 1687 1720 1602 1643 1666 1683 1618 1692 1635 1649 1629 1678 1691 1635 1675 1565 1611 1670 1670 1693 1620 1663 1714 1673 1671 1592 1639 1679 1669 1698 1658 1651 1613 1624 1643 1628 1634 1623 1737 1684 1667 1667 1648 1647 1777 1728 1699 1713 1661 1665 1689 1722 1684 1700 1688 1745 1797 1728 1674 1734 1727 1761 1730 1714 1744 1810 1763 1810 1709 1811 1878 1794 1763 1873 1907 1835 1936 1797 1876 1929 1908 1931 1875 1904 1905 1921 1998 1926 1870 1880 1946 1846 2020 2004 1925 1976 1961 1902 1899 1878 1898 1895 1866 1941 1870 1903 1929 1883 1816 1872 1850 1888 1902 1870 1838 1759 1841 1832 1803 1839 1858 1835 1755 1819 1812 1760 1740 1772 1683 1817 1792 1724 1821 1676 1780 1682 1682 1648 1687 1714 1646 1703 1756 1733 1695 1655 1590 1750 1679 1643 1740 1660 1696 1714 1671 1669 1631 1725 1713 1680 1600 1658 1641 1644 1698 1622 1697 1619 1687 1665 1607 1687 1632 1660 1592 1663 1670 1647 1635 1617 1677 1717 1703 1740 1634 1628 1676 1760 1599 1617 1645 1613 1676 1621 1647 1643 1648 1687 1665 1660 1697 1687 1618 1714 1659 1688 1695 1697 1659 1654 1655 1662 1608 1628 1689 1689 1697 1704 1704 1615 1726 1714 1668 1723 1679 1656 1687 1737 1637 1587 1688 1634 1773 1756 1686 1649 1719 1688 1724 1681 1658 1836 1671 1808 1695 1706 1773 1718 1727 1735 1726 1764 1683 1732 1749 1669 1657 1760 1738 1748 1727 1746 1618 1727 1710 1665 1643 1729 1739 1713 1778 1711 1777 1673 1681 1745 1695 1695 1628 1708 1741 1694 1681 1625 1689 1640 1743 1641 1606 1707 1659 1704 1694 1622 1650 1662 1737 1625 1703 1775 1632 1686 1626 1706 1640 1642 1684 1742 1692 1705 1668 1700 1670 1662 1720 1717 1741 1693 1664 1639 1675 1726 1674 1706 1666 1708 1678 1664 1681 1660 1700 1670 1624 1656 1664 1663 1619 1653 1658 1622 1703 1627 1706 1660 1714 1659 1700 1720 1810 1676 1656 1699 1663 1640 1667 1667 1674 1635 1668 1672 1600 1622 1669 1654 1658 1674 1701 1668 1635 1573 1691 1637 1682 1680 1669 1704 1682 1625 1707 1624 1645 1658 1681 1560 1653 1638 1592 1639 1599 1662 1643 1744 1672 1618 1666 1700 1640 1656 1643 1625 1628 1664 1679 1611 1711 1673 1615 1632 1652 1690 1633 1631 1657 1654 1583 1683 1674 1681 1642 1669 1605 1622 1693 1606 1664 1669 1680 1657 1653 1631 1639 1666 1717 1636 1570 1649 1657 1669 1697 1667 1597 1578 1640 1676 1663 1650 1626 1626 1716 1662 1657 1647 1702 1675 1586 1647 1644 1761 1691 1706 1601 1679 1648 1664 1603 1618 1606 1602 1595 1633 1616 1622 1686 1669 1636 1633 1575 1611 1691 1648 1536 1560 1565 1642 1568 1665 1641 1590 1598 1649 1685 1631 1578 1627 1638 1577 1619 1624 1632 1617 1607 1603 1638 1635 1620 1636 1679 1608 1650 1651 1597 1721 1598 1679 1590 1627 1653 1657 1694 1666 1699 1649 1589 1714 1619 1636 1637 1607 1631 1570 1609 1580 1579 1585 1588 1651 1567 1658 1675 1586 1700 1630 1636 1598 1573 1704 1612 1604 1628 1594 1573 1651 1600 1672 1640 1636 1649 1549 1617 1620 1571 1617 1610 1560 1631 1661 1593 1680 1678 1585 1634 1604 1624 1563 1550 1593 1697 1665 1655 1636 1676 1556 1619 1658 1586 1647 1594 1664 1669 1676 1638 1615 1568 1578 1634 1680 1599 1643 1618 1631 1614 1627 1607 1605 1667 1692 1676 1618 1596 1740 1517 1717 1588 1646 1639 1646 1576 1636 1625 1597 1592 1623 1594 1611 1538 1695 1632 1639 1617 1515 1592 1616 1651 1630 1627 1649 1627 1629 1624 1527 1626 1611 1660 1641 1582 1659 1646 1583 1596 1562 1671 1594 1660 1660 1647 1640 1631 1587 1660 1594 1753 1690 1698 1603 1655 1668 1613 1620 1559 1713 1605 1615 1622 1647 1650 1632 1607 1631 1641 1623 1565 1685 1630 1607 1661 1649 1692 1645 1620 1634 1660 1681 1677 1714 1665 1609 1655 1652 1718 1630 1668 1610 1627 1610 1627 1669 1699 1680 1711 1715 1688 1640 1714 1704 1688 1662 1714 1701 1613 1689 1630 1607 1783 1691 1689 1685 1679 1706 1615 1768 1656 1780 1730 1740 1667 1652 1700 1774 1692 1626 1722 1657 1694 1787 1650 1685 1713 1732 1621 1646 1717 1653</counts>
			</dataPoints>
		</scan>
	</xrdMeasurement>
</xrdMeasurements>
