<?xml version="1.0"?>
<xrdMeasurements xmlns="http://www.xrdml.com/XRDMeasurement/2.3" xmlns:xsi="http://www.w3.org/2001/XMLSchema-instance" xsi:schemaLocation="http://www.xrdml.com/XRDMeasurement/2.3 http://www.xrdml.com/XRDMeasurement/2.3/XRDMeasurement.xsd" status="Completed" recordIdentifier="{17AFAE3E-F0AD-4BFD-A6F9-872803370D4C}">
	<comment>
		<entry/>
	</comment>
	<sample type="To be analyzed">
		<id>GPSS_Li2Fe0p85Ni0p10Mn0p05Cl4_111725_691b7e20f3837ac4a0a99371</id>
		<name></name>
		<preparedBy></preparedBy>
	</sample>
	<xrdMeasurement measurementType="Scan" status="Completed" sampleMode="Reflection">
		<usedWavelength intended="K-Alpha 1">
			<kAlpha1 unit="Angstrom">1.5405980</kAlpha1>
			<kAlpha2 unit="Angstrom">1.5444260</kAlpha2>
			<kBeta unit="Angstrom">1.3922500</kBeta>
			<ratioKAlpha2KAlpha1>0.5000</ratioKAlpha2KAlpha1>
		</usedWavelength>
		<incidentBeamPath>
			<radius unit="mm">145.00</radius>
			<xRayTube id="1010048" name="Empyrean Cu LFF HR (9430 033 7310x)">
				<tension unit="kV">40.0</tension>
				<current unit="mA">15.0</current>
				<anodeMaterial>Cu</anodeMaterial>
				<focus type="Line">
					<length unit="mm">12.0</length>
					<width unit="mm">0.4</width>
					<takeOffAngle unit="deg">6.0</takeOffAngle>
				</focus>
			</xRayTube>
			<sollerSlit id="21010002" name="Soller slits 0.04 rad.">
				<opening unit="rad">0.0400</opening>
			</sollerSlit>
			<mask id="22031000" name="Fixed mask 13 mm">
				<width unit="mm">9.00</width>
			</mask>
			<divergenceSlit id="22120001" name="Divergence slit 1°" xsi:type="fixedDivergenceSlitType">
				<distanceToSample unit="mm">50.00</distanceToSample>
				<height unit="mm">1.52</height>
			</divergenceSlit>
		</incidentBeamPath>
		<sampleMovement xsi:type="spinningSampleMovementType">
			<spinnerRevolutionTime unit="seconds">1.0</spinnerRevolutionTime>
		</sampleMovement>
		<diffractedBeamPath>
			<radius unit="mm">145.00</radius>
			<antiScatterSlit id="22090040" name="AS slit 9 mm (PIXcel)" xsi:type="fixedAntiScatterSlitType">
				<height unit="mm">9.00</height>
			</antiScatterSlit>
			<sollerSlit id="21020003" name="Large Soller slits 0.04 rad.">
				<opening unit="rad">0.0400</opening>
			</sollerSlit>
			<filter id="20030001" name="Large beta-filter Nickel">
				<material>Ni</material>
				<thickness unit="mm">0.020</thickness>
			</filter>
			<detector id="7010019" name="PIXcel1D-Medipix3 detector" xsi:type="rtmsDetectorType">
				<phd unit="keV">
					<lowerLevel>4.02</lowerLevel>
					<upperLevel>11.27</upperLevel>
				</phd>
				<mode>Scanning</mode>
				<activeLength unit="deg">5.542</activeLength>
			</detector>
		</diffractedBeamPath>
		<scan appendNumber="0" mode="Continuous" scanAxis="Gonio" status="Completed">
			<header>
				<startTimeStamp>2025-11-19T12:02:44-08:00</startTimeStamp>
				<endTimeStamp>2025-11-19T12:10:52-08:00</endTimeStamp>
				<author>
					<name>AutomatedUser</name>
				</author>
				<source>
					<applicationSoftware version="1.7b (136)">PANalytical Aeris Instrument Suite</applicationSoftware>
					<instrumentControlSoftware version="3.2.00000000 20240306">AERIS</instrumentControlSoftware>
					<instrumentID>950485</instrumentID>
				</source>
			</header>
			<dataPoints>
				<positions axis="2Theta" unit="deg">
					<startPosition>10.00943322</startPosition>
					<endPosition>99.99442286</endPosition>
				</positions>
				<positions axis="Omega" unit="deg">
					<startPosition>5.00471661</startPosition>
					<endPosition>49.99721143</endPosition>
				</positions>
				<commonCountingTime unit="seconds">12.495</commonCountingTime>
				<counts unit="counts">3264 3301 3187 3246 3261 3279 3361 3196 3270 3314 3324 3263 3263 3270 3221 3242 3248 3289 3327 3267 3358 3332 3284 3283 3302 3268 3309 3290 3369 3276 3359 3242 3349 3368 3361 3303 3408 3354 3430 3390 3371 3318 3340 3342 3436 3423 3347 3392 3399 3345 3424 3318 3424 3424 3335 3352 3450 3363 3409 3423 3470 3400 3451 3419 3329 3546 3463 3450 3428 3489 3465 3430 3478 3513 3557 3638 3500 3515 3539 3616 3417 3544 3582 3483 3559 3527 3553 3572 3598 3532 3577 3523 3587 3518 3622 3663 3628 3704 3577 3588 3669 3601 3645 3724 3657 3677 3688 3614 3688 3603 3739 3617 3697 3780 3671 3643 3701 3673 3738 3655 3756 3608 3805 3660 3589 3619 3605 3619 3679 3695 3733 3811 3728 3739 3700 3707 3783 3703 3636 3647 3717 3768 3655 3824 3738 3657 3673 3716 3688 3717 3751 3685 3698 3642 3678 3698 3711 3699 3808 3548 3704 3717 3640 3708 3818 3611 3601 3644 3721 3735 3639 3683 3607 3699 3689 3547 3676 3655 3533 3584 3610 3587 3587 3617 3566 3570 3644 3663 3568 3520 3588 3625 3580 3726 3552 3588 3572 3585 3577 3541 3611 3719 3597 3614 3546 3636 3567 3572 3485 3553 3544 3622 3579 3657 3564 3594 3507 3580 3524 3527 3553 3522 3507 3595 3531 3516 3570 3460 3482 3599 3493 3499 3473 3428 3503 3523 3501 3552 3447 3526 3467 3503 3373 3496 3478 3450 3430 3363 3447 3352 3389 3509 3395 3373 3382 3417 3343 3473 3306 3407 3305 3337 3397 3384 3331 3497 3408 3389 3364 3319 3366 3346 3306 3385 3374 3375 3321 3275 3279 3320 3248 3308 3309 3392 3259 3333 3339 3146 3317 3349 3298 3235 3239 3257 3308 3240 3299 3426 3211 3224 3239 3161 3248 3176 3210 3322 3247 3321 3264 3380 3287 3393 3233 3226 3294 3289 3234 3251 3275 3254 3287 3214 3349 3238 3205 3240 3275 3311 3278 3339 3314 3244 3265 3291 3256 3275 3248 3264 3227 3298 3307 3244 3246 3255 3258 3278 3223 3276 3359 3380 3264 3395 3416 3251 3259 3293 3247 3250 3214 3264 3260 3290 3324 3354 3242 3390 3418 3343 3430 3377 3358 3271 3347 3326 3355 3420 3255 3360 3378 3323 3320 3318 3386 3437 3425 3451 3307 3235 3417 3376 3306 3351 3303 3376 3439 3448 3335 3357 3287 3295 3490 3462 3360 3468 3378 3452 3377 3395 3452 3512 3468 3555 3526 3496 3477 3528 3442 3457 3526 3669 3569 3571 3567 3726 3750 3640 3583 3802 3763 3765 3779 3702 3677 3672 3679 3602 3589 3604 3693 3607 3764 3499 3636 3652 3668 3575 3503 3539 3602 3687 3602 3644 3564 3653 3573 3657 3551 3696 3511 3676 3600 3720 3752 3712 3756 3717 3645 3786 3779 3859 3881 3846 3853 3858 3898 3928 3927 3954 3856 3934 3844 3781 3926 3767 3834 3812 3766 3669 3667 3549 3551 3486 3508 3601 3460 3585 3335 3503 3405 3370 3409 3306 3399 3347 3332 3421 3382 3400 3270 3336 3335 3388 3409 3247 3233 3317 3226 3235 3322 3262 3184 3225 3203 3302 3227 3370 3209 3187 3228 3158 3218 3185 3152 3204 3125 3299 3237 3101 3244 3088 3246 3233 3112 3132 3187 3176 3086 3205 3126 3026 3066 3166 3110 3049 3103 3018 3086 3180 3046 3102 3126 3086 3062 3043 3113 3151 3058 3056 3048 3005 2991 3034 3012 3109 3128 3043 3016 3090 2974 2937 2996 3061 2986 3086 3018 2977 2966 2976 2931 2954 2946 3056 3086 3075 2956 3122 3023 3039 2970 2973 2894 3026 2919 2970 2971 2960 2882 2913 2943 2993 2842 2975 2940 2981 2916 2884 3009 2886 2925 2933 2851 3018 2905 2923 2986 2942 2923 2860 2917 2891 2965 2883 2858 2877 2910 2903 2970 2897 2978 2863 2887 2852 2928 2925 2818 2885 2902 2829 2860 2863 2938 2910 2954 2873 2910 2894 2944 2892 2865 2821 2807 2798 2965 2979 2864 2823 3005 2865 2807 2725 2887 2836 2946 2866 2904 2843 2800 2880 2828 2893 2744 2791 2746 2734 2852 2791 2849 2799 2897 2824 2825 2896 2902 2898 2927 2806 2839 2900 2833 2872 2766 2884 2770 2682 2777 2731 2850 2709 2789 2824 2867 2767 2882 2869 2771 2728 2815 2831 2781 2710 2845 2746 2808 2727 2722 2742 2766 2769 2730 2613 2839 2696 2757 2708 2744 2825 2771 2801 2754 2707 2786 2706 2705 2691 2856 2698 2776 2732 2752 2738 2808 2667 2704 2851 2727 2674 2687 2736 2699 2672 2622 2744 2755 2733 2880 2744 2745 2732 2735 2793 2722 2816 2754 2641 2724 2743 2775 2737 2649 2643 2678 2799 2774 2736 2753 2769 2667 2696 2716 2776 2655 2719 2709 2713 2722 2674 2628 2668 2619 2620 2749 2706 2757 2807 2727 2677 2633 2787 2696 2749 2696 2645 2708 2653 2631 2663 2614 2707 2708 2686 2655 2654 2762 2778 2753 2819 2709 2732 2648 2594 2592 2709 2696 2770 2707 2707 2660 2720 2647 2724 2640 2673 2545 2647 2646 2666 2610 2658 2632 2651 2777 2554 2689 2599 2511 2640 2650 2655 2566 2710 2661 2611 2598 2720 2666 2566 2638 2580 2678 2646 2610 2679 2667 2633 2663 2622 2662 2604 2599 2594 2590 2600 2681 2670 2633 2685 2640 2523 2534 2625 2633 2598 2603 2627 2578 2597 2669 2541 2538 2449 2576 2588 2644 2511 2566 2619 2516 2596 2564 2520 2485 2568 2484 2525 2599 2453 2534 2506 2632 2608 2526 2553 2579 2616 2662 2462 2514 2525 2519 2578 2575 2613 2526 2505 2584 2602 2588 2482 2443 2590 2550 2551 2508 2522 2553 2500 2400 2603 2512 2517 2535 2506 2629 2494 2433 2528 2454 2540 2480 2463 2515 2493 2482 2445 2560 2401 2453 2639 2428 2516 2509 2477 2467 2425 2469 2469 2454 2433 2485 2586 2488 2609 2448 2551 2438 2491 2414 2562 2445 2483 2451 2529 2563 2528 2379 2435 2362 2541 2449 2479 2460 2500 2552 2449 2533 2550 2479 2369 2511 2511 2551 2476 2402 2410 2537 2472 2532 2539 2439 2518 2481 2484 2556 2458 2414 2535 2401 2479 2392 2511 2483 2537 2507 2508 2555 2420 2483 2525 2460 2449 2452 2480 2484 2549 2469 2429 2480 2448 2456 2522 2450 2523 2385 2457 2444 2423 2569 2522 2429 2574 2477 2538 2373 2434 2515 2511 2526 2465 2493 2470 2540 2540 2442 2438 2425 2505 2527 2517 2410 2458 2554 2364 2421 2522 2451 2535 2406 2475 2522 2409 2393 2457 2355 2525 2559 2522 2498 2497 2391 2429 2487 2493 2432 2416 2465 2482 2462 2480 2472 2462 2506 2509 2535 2408 2514 2510 2466 2500 2486 2484 2452 2422 2390 2527 2448 2374 2484 2507 2497 2440 2447 2497 2415 2454 2445 2383 2420 2458 2430 2441 2456 2499 2451 2414 2428 2440 2450 2441 2308 2438 2416 2424 2297 2353 2423 2441 2377 2424 2409 2476 2356 2470 2392 2389 2372 2459 2470 2346 2388 2369 2295 2377 2327 2353 2324 2430 2408 2382 2374 2405 2360 2342 2343 2321 2277 2297 2337 2391 2288 2269 2311 2262 2284 2241 2269 2250 2322 2269 2321 2288 2284 2282 2287 2259 2201 2194 2169 2262 2257 2280 2205 2213 2340 2278 2267 2257 2255 2263 2258 2288 2190 2164 2219 2157 2140 2150 2149 2263 2250 2196 2203 2166 2215 2127 2216 2178 2157 2176 2127 2224 2082 2207 2170 2176 2124 2102 2222 2055 2191 2105 2086 2079 2061 2072 2036 2160 2108 2066 2102 2063 2124 2169 2071 2124 2082 1990 2050 2031 2020 2096 2020 2016 2080 2063 2051 2013 2011 2085 2141 2037 2049 2077 2065 2066 2128 2034 2007 2030 2030 2061 1963 2014 2042 2026 1933 1923 1997 1971 1898 1926 1967 2055 1939 2032 2012 1977 2042 1960 2052 1986 2037 2039 1996 2101 1965 2083 2033 2059 1924 2064 1971 2049 2049 1987 1941 2005 1959 1960 1908 1923 1950 1896 1937 1868 1936 1963 1992 1956 1941 1897 1947 1929 1875 1980 2031 1915 1934 1973 1972 1918 1966 1859 1869 1907 1944 1953 1959 1907 1897 1890 1970 1939 1979 1983 1964 2045 1973 1905 1840 1859 1944 1967 1838 1922 1893 1850 1911 1927 1915 1892 1941 1858 1867 1887 1962 1861 1883 1908 1977 1933 1826 1924 1898 1898 1917 1818 1903 1773 1897 1920 1876 1818 1914 1827 1879 1870 1950 1912 1866 1912 1900 1910 1918 1860 1945 1830 1811 1801 1879 1877 1908 1901 1975 1863 1939 1856 1846 1894 1900 1835 1820 1971 1822 1811 1836 1864 1912 1793 1922 1851 1838 1818 1884 1801 1870 1826 1831 1951 1906 1931 1890 1984 1903 1841 1884 1878 1874 1857 1838 1930 1876 1868 1950 1943 1891 1884 1905 1910 1957 1896 1885 1909 1897 1911 1859 1914 1883 1918 1940 1957 1925 1940 1901 1904 1888 1846 1898 1820 1864 1906 1879 1854 1856 1883 1871 1936 1806 1956 1905 1940 1891 1908 1887 1862 1895 1869 1878 1880 1954 1887 1873 1964 1838 1924 1961 1877 1866 1903 1888 1853 1911 1866 1905 1960 1959 1935 1901 1872 1903 1897 1776 1920 1803 1828 1863 1882 1825 1878 1823 1805 1842 1826 1857 1795 1903 1952 1885 1862 1884 1919 1873 1843 1881 1817 1828 1818 1916 1712 1833 1854 1820 1708 1794 1827 1812 1745 1769 1797 1823 1786 1781 1826 1849 1790 1791 1900 1822 1753 1825 1777 1841 1848 1782 1709 1690 1787 1744 1830 1766 1715 1724 1735 1721 1761 1804 1760 1834 1760 1781 1749 1712 1793 1726 1757 1721 1779 1802 1755 1672 1700 1636 1690 1710 1750 1653 1719 1654 1720 1727 1646 1778 1665 1698 1718 1691 1675 1694 1666 1681 1632 1669 1682 1696 1657 1639 1660 1734 1637 1703 1702 1732 1652 1619 1698 1642 1673 1665 1713 1622 1656 1706 1664 1662 1593 1585 1688 1643 1628 1660 1651 1618 1688 1658 1661 1631 1642 1623 1661 1617 1579 1535 1581 1609 1560 1607 1649 1590 1586 1594 1638 1677 1614 1775 1636 1700 1727 1736 1684 1794 1827 1786 1846 1872 1823 1831 1811 1859 1851 1865 1840 1814 1838 1745 1731 1751 1756 1722 1663 1681 1782 1680 1601 1759 1732 1680 1580 1647 1617 1639 1621 1622 1687 1671 1669 1627 1611 1673 1589 1615 1640 1720 1622 1738 1671 1762 1605 1813 1757 1696 1705 1764 1804 1712 1757 1756 1769 1780 1720 1709 1637 1695 1665 1715 1634 1668 1694 1581 1645 1575 1607 1683 1619 1603 1615 1616 1586 1633 1526 1512 1572 1550 1556 1521 1496 1551 1511 1489 1572 1473 1462 1508 1543 1518 1495 1476 1501 1447 1585 1477 1463 1525 1511 1513 1575 1557 1506 1524 1519 1495 1488 1524 1548 1549 1560 1571 1595 1704 1650 1705 1737 1828 1794 1828 1820 1758 1906 1852 1857 1784 1789 1847 1797 1760 1803 1794 1795 1815 1790 1829 2015 1846 1964 1902 1825 1955 1858 1850 1854 1825 1937 1760 1752 1671 1673 1788 1704 1705 1726 1699 1743 1700 1699 1751 1833 1812 1789 1785 1801 1852 1890 1907 1802 1890 1863 1895 1847 1875 1727 1858 1773 1720 1642 1753 1623 1695 1680 1737 1675 1640 1678 1693 1615 1639 1548 1642 1584 1538 1563 1497 1558 1507 1561 1482 1497 1482 1480 1483 1403 1394 1333 1403 1434 1393 1286 1325 1342 1369 1335 1341 1372 1328 1335 1435 1348 1265 1304 1332 1341 1336 1388 1341 1347 1369 1303 1247 1258 1322 1350 1296 1295 1322 1324 1339 1334 1357 1312 1332 1297 1294 1312 1303 1342 1300 1274 1307 1311 1299 1303 1282 1279 1315 1297 1280 1325 1342 1298 1379 1264 1288 1367 1299 1346 1257 1298 1307 1338 1289 1268 1309 1201 1277 1274 1284 1299 1329 1223 1283 1281 1265 1315 1305 1279 1291 1282 1247 1296 1231 1351 1232 1197 1233 1290 1244 1288 1230 1211 1288 1245 1261 1334 1214 1273 1260 1285 1250 1282 1217 1229 1248 1259 1193 1254 1253 1275 1277 1229 1255 1270 1255 1223 1285 1218 1256 1264 1236 1221 1356 1270 1269 1267 1272 1229 1236 1275 1260 1248 1181 1247 1310 1277 1214 1240 1294 1279 1248 1313 1223 1222 1270 1237 1269 1266 1280 1282 1359 1289 1202 1298 1237 1267 1261 1307 1308 1232 1289 1242 1289 1261 1348 1312 1292 1334 1364 1336 1359 1337 1351 1352 1318 1361 1414 1348 1442 1425 1379 1430 1455 1416 1408 1402 1409 1459 1385 1459 1454 1462 1490 1480 1421 1413 1371 1361 1407 1387 1374 1370 1381 1385 1366 1308 1322 1315 1328 1316 1331 1296 1322 1343 1330 1293 1317 1302 1285 1300 1284 1285 1242 1342 1304 1369 1354 1366 1370 1404 1293 1313 1323 1267 1308 1328 1310 1397 1392 1299 1305 1264 1321 1355 1273 1246 1277 1241 1290 1266 1210 1281 1261 1329 1266 1262 1325 1282 1277 1281 1261 1252 1320 1253 1266 1303 1325 1299 1301 1305 1332 1274 1279 1172 1306 1266 1203 1272 1276 1226 1261 1244 1259 1234 1276 1270 1290 1239 1239 1264 1156 1362 1228 1198 1218 1271 1241 1247 1207 1224 1196 1244 1240 1285 1216 1166 1186 1315 1268 1309 1256 1274 1248 1255 1268 1300 1268 1216 1233 1290 1339 1315 1270 1314 1289 1321 1291 1328 1354 1379 1436 1433 1513 1569 1514 1670 1676 1738 1841 1902 2026 2039 2157 2251 2314 2362 2473 2471 2512 2406 2529 2423 2504 2324 2430 2325 2273 2331 2366 2274 2209 2241 2191 2198 2249 2246 2267 2269 2250 2381 2325 2348 2408 2345 2361 2268 2352 2465 2299 2283 2215 2289 2272 2332 2311 2181 2350 2281 2332 2374 2361 2319 2471 2429 2404 2434 2448 2431 2310 2354 2285 2245 2203 2126 2151 1995 2050 2033 2009 1950 1926 1932 1921 1877 1875 1784 1800 1773 1719 1658 1767 1650 1592 1616 1559 1541 1561 1514 1467 1487 1447 1431 1416 1376 1400 1336 1339 1329 1362 1306 1371 1286 1304 1344 1269 1255 1203 1291 1294 1207 1251 1248 1222 1271 1187 1226 1201 1231 1222 1183 1180 1224 1242 1206 1197 1176 1291 1210 1175 1214 1197 1251 1147 1233 1215 1169 1183 1252 1139 1163 1186 1194 1243 1234 1190 1172 1231 1207 1168 1146 1245 1247 1248 1232 1116 1189 1157 1103 1206 1199 1238 1173 1134 1174 1190 1184 1204 1128 1195 1186 1174 1122 1170 1187 1151 1166 1226 1197 1197 1110 1196 1168 1133 1176 1110 1153 1109 1206 1134 1159 1149 1143 1132 1158 1162 1091 1137 1187 1152 1056 1139 1101 1125 1142 1117 1139 1113 1128 1133 1193 1181 1171 1138 1144 1125 1123 1130 1127 1113 1115 1125 1155 1139 1147 1120 1101 1118 1162 1040 1081 1165 1113 1137 1147 1133 1148 1155 1095 1152 1153 1126 1139 1104 1078 1181 1146 1163 1137 1177 1120 1074 1134 1106 1140 1187 1069 1132 1044 1125 1129 1130 1090 1105 1111 1100 1086 1100 1163 1030 1149 1081 1083 1114 1150 1070 1151 1103 1106 1144 1085 1125 1087 1069 1131 1042 1046 1114 1153 1169 1121 1104 1118 1098 1088 1070 1079 1156 1147 1069 1107 1109 1068 1075 1161 1059 1043 1149 1131 1106 1110 1132 1062 1078 1084 1104 1075 1080 1118 1063 1127 1177 1090 1148 1092 1103 1126 1065 1132 1088 1145 1179 1181 1094 1078 1115 1062 1146 1079 1100 1113 1105 1128 1073 1089 1107 1134 1124 1176 1110 1084 1098 1082 1115 1108 1109 1094 1105 1078 1119 1044 1100 1028 1048 1147 1092 1065 1082 1105 1084 1056 1050 1072 1063 1126 1113 1112 1065 1084 1047 1102 1154 1081 1082 1070 1010 1106 1075 1102 1112 1010 1036 1006 1093 1051 1099 1060 1085 1070 1071 1119 1078 1080 1059 1042 1000 1055 995 1001 1120 1094 1068 1096 1039 1033 1028 1051 1093 1096 1075 1070 1047 1089 995 1099 1050 1029 1071 1072 1148 1093 1080 1026 1044 1049 1086 1072 1093 1098 1066 1099 987 1083 1016 1065 1019 1030 1080 1041 1083 1092 1032 1126 1110 1091 1027 1075 1080 1085 1124 1011 1066 1062 1106 1082 1129 1062 1042 1055 1037 1104 1007 1057 1093 1077 1110 1026 1060 1044 1050 1031 1035 1089 1016 1078 1029 1069 1003 1048 974 1010 1055 1011 1014 953 1023 1023 1056 1036 1028 1043 1031 1037 1024 1128 1042 1074 1059 1036 1031 1026 1037 997 1077 1063 1048 1096 1083 1062 1008 984 1023 1032 1068 1009 1014 1061 1019 974 1018 1069 1026 1029 1090 1036 1074 979 1049 980 1013 964 1040 1074 1014 1042 990 962 984 1042 957 1034 979 981 1108 1009 1052 1045 992 997 1019 1022 1005 1027 1041 1049 987 1046 988 1044 960 988 1011 1013 1064 981 1049 1025 1056 988 1041 1011 1049 1003 1046 1009 1022 1037 1048 1017 938 1032 1025 1022 1027 947 1047 1031 1050 1061 1013 1009 973 1032 1007 1038 1012 1003 1055 987 1004 960 993 1023 1036 1017 1031 976 1053 951 1035 978 1033 1061 1018 983 1066 993 969 1012 1065 1003 978 1006 1031 988 974 1021 963 1040 1019 1047 959 997 1031 1035 1007 1049 1013 1007 992 1028 977 1054 1027 1010 1001 1049 1029 1000 1046 1016 1031 995 1002 1044 983 1069 1000 1072 982 1031 1008 1030 970 1048 963 1034 1029 991 1058 970 1031 1015 1011 1003 953 966 1040 1000 1005 990 1025 994 1040 909 1019 1002 1009 1007 953 989 985 1022 967 1013 999 961 1011 977 1020 1021 993 1005 1038 968 1009 1009 949 1008 973 989 1025 938 1031 967 1000 939 1001 964 950 996 1006 1073 1007 950 1027 1024 1010 950 1020 980 1005 1040 994 953 970 982 962 987 1011 987 987 961 1012 1035 997 999 1007 959 965 985 1004 1049 970 993 992 995 1002 982 1052 962 1002 1014 1023 1049 1033 1033 972 990 995 1067 1033 990 1025 988 1035 934 1016 987 1043 999 972 993 1014 1073 999 1004 1042 1038 958 906 1012 985 1037 1016 1031 1024 1032 996 1051 1017 936 1033 991 1034 1032 1014 1005 1010 942 959 1027 968 1019 1008 1049 1053 1024 1031 995 980 1001 1017 1036 970 968 1007 996 967 977 999 994 1038 970 1018 1004 967 995 1026 977 1006 1035 996 972 983 1013 969 887 1029 955 1031 1036 1028 986 952 1029 959 996 954 911 978 978 997 968 1020 993 965 1012 992 991 1004 985 952 993 1003 989 975 1033 991 993 1027 1045 976 996 971 1008 1009 1044 1060 984 1066 987 977 1006 1089 985 1009 1042 910 1018 1060 1061 1019 1035 986 977 1015 1065 1039 989 978 983 987 1056 971 1065 1051 961 992 998 1009 1007 968 1042 960 959 1003 946 1043 984 989 945 1002 991 1023 1046 1022 986 962 948 970 949 1010 1021 978 995 950 923 1007 983 991 914 995 1054 1030 963 997 1013 958 1005 964 953 1036 1019 1023 978 981 997 895 964 989 979 922 968 1003 1031 1016 988 1045 974 1034 916 975 993 1004 1062 1059 1075 1125 1126 1112 1121 1015 1102 1154 1067 1153 1087 1056 1112 1107 1129 1141 1110 1143 1091 1047 1055 1151 1106 1076 1059 1048 1038 1039 1013 1042 996 1055 1100 1023 1077 977 966 1026 1057 1126 1101 1052 1080 1088 1024 1065 1084 1033 1028 1092 1056 1078 1151 1095 1118 1089 1105 1127 1043 1094 1077 1057 1103 1031 970 1055 1073 1064 1003 1030 980 1043 1036 1004 1023 911 979 1014 957 1031 1012 965 1017 1007 1077 957 1000 1019 930 992 952 891 991 964 957 952 952 938 998 956 967 943 968 935 1048 933 925 975 890 951 889 1006 922 913 966 981 887 944 955 932 948 962 917 886 913 887 927 889 915 977 994 945 933 915 928 909 955 919 968 875 958 888 971 910 933 924 884 904 919 978 936 917 943 965 903 923 951 956 922 941 916 907 936 936 892 962 931 925 944 924 951 913 899 894 964 958 949 884 913 976 946 888 923 939 936 927 904 919 884 922 950 932 912 943 911 874 922 914 889 956 947 909 921 888 907 913 858 927 899 985 921 888 885 873 937 936 909 910 978 938 926 942 943 873 881 979 878 957 907 914 947 929 935 905 934 943 997 980 934 881 883 920 923 947 914 854 908 900 935 932 917 910 876 955 964 901 884 919 880 974 933 925 986 893 971 874 914 928 851 947 894 988 930 957 915 887 946 916 932 923 947 925 896 939 917 905 903 934 930 925 878 925 937 957 934 933 928 962 905 928 913 916 894 921 958 921 900 940 951 903 930 963 934 862 903 893 941 895 846 1005 939 886 931 917 908 837 913 943 921 967 954 917 911 929 927 893 888 920 929 908 898 884 934 933 939 956 919 936 908 891 956 949 944 963 919 885 937 930 921 908 899 912 897 925 943 911 925 922 914 928 884 913 885 951 948 959 960 959 956 977 965 1020 952 949 967 1031 995 1062 982 1049 1090 1173 1166 1211 1123 1270 1169 1362 1342 1425 1460 1377 1502 1505 1420 1483 1546 1553 1498 1532 1551 1548 1530 1476 1516 1515 1436 1445 1493 1389 1424 1443 1417 1414 1425 1342 1361 1403 1367 1430 1388 1386 1390 1438 1344 1455 1402 1453 1462 1598 1618 1624 1624 1664 1662 1716 1661 1648 1621 1598 1527 1526 1519 1545 1488 1487 1486 1407 1412 1429 1359 1367 1331 1257 1251 1283 1172 1196 1178 1180 1217 1151 1097 1117 1181 1133 1140 1173 1120 1168 1131 1099 1178 1098 1111 1110 1056 1096 1071 1119 1082 1058 1045 1025 999 982 1078 1065 1005 1017 1028 951 962 970 1000 981 985 980 976 955 951 917 938 933 930 917 935 1003 923 941 929 934 943 935 929 854 907 934 977 890 893 944 923 894 906 876 880 901 901 923 878 916 952 942 940 921 956 931 915 955 926 937 912 926 896 866 930 885 888 914 899 893 914 938 926 910 858 938 912 876 907 872 916 924 879 855 857 878 963 928 879 913 911 863 920 900 965 896 914 944 892 878 855 939 922 900 917 900 915 879 922 947 927 934 868 907 882 987 918 839 850 938 903 914 894 860 910 906 935 910 930 978 900 921 903 936 899 958 998 905 945 981 955 999 1011 919 961 933 974 907 945 906 917 908 886 918 888 936 929 938 926 909 873 958 923 888 986 885 991 905 969 960 936 927 921 971 1030 933 947 966 995 1029 921 982 958 960 871 943 980 965 912 972 940 906 875 938 902 900 920 897 924 922 926 869 886 935 907 850 939 933 838 878 850 883 875 914 906 894 899 902 922 888 855 893 807 898 881 890 860 838 904 885 875 837 858 816 866 902 869 872 832 890 894 877 869 871 806 870 897 862 858 873 814 887 910 889 864 933 845 872 863 834 842 851 868 847 824 872 858 856 847 831 860 845 862 835 905 792 885 791 849 840 843 850 857 905 854 840 886 892 842 848 856 831 855 861 874 843 904 829 839 823 792 865 858 908 883 896 839 849 859 848 840 766 784 856 862 839 794 861 838 849 816 888 882 818 911 844 909 825 803 897 857 827 815 856 796 854 826 866 857 822 917 881 850 837 842 783 847 848 821 817 811 784 856 832 843 814 870 853 813 858 763 885 822 835 864 801 834 867 864 857 824 850 797 809 871 828 834 872 879 867 869 810 812 873 829 835 899 805 862 826 838 851 834 825 820 830 849 794 807 864 829 818 820 821 817 874 799 818 805 829 811 843 799 857 845 834 807 816 830 811 837 801 801 827 859 794 905 826 792 886 805 869 804 872 859 821 820 832 822 810 899 833 828 817 879 794 845 837 832 765 812 805 813 889 830 778 848 813 779 813 870 842 794 820 841 812 775 855 777 791 855 883 816 853 789 848 817 771 801 854 814 830 802 794 843 856 820 852 836 841 785 831 809 754 819 836 832 815 798 871 772 807 809 827 753 824 798 838 839 835 808 785 835 816 799 813 790 783 823 866 818 746 789 862 857 846 799 800 820 827 806 809 797 825 806 840 813 819 793 830 794 843 815 791 798 835 833 831 818 788 766 772 799 811 826 790 806 805 815 838 814 839 801 825 770 852 793 807 777 817 792 764 815 755 819 820 805 777 785 843 849 822 827 836 832 827 840 786 833 838 780 856 794 787 846 862 797 859 808 846 820 786 815 787 791 811 811 739 800 792 813 792 803 789 792 779 818 846 856 848 785 899 812 875 782 803 805 820 786 825 812 753 816 808 791 781 824 761 785 860 786 820 809 849 795 788 791 716 782 809 823 807 761 806 780 773 828 784 793 815 826 801 769 832 743 791 820 804 795 813 751 740 776 818 796 744 754 825 795 748 815 765 811 783 820 819 814 846 800 790 827 771 787 817 798 809 838 860 860 809 844 784 792 789 824 787 822 770 804 780 798 812 815 847 827 832 808 823 798 827 730 755 773 815 787 805 806 741 818 797 805 824 862 776 812 807 818 799 819 832 787 819 818 804 821 842 783 817 846 816 830 816 836 845 759 800 778 823 787 837 846 864 828 846 856 833 871 800 938 925 879 904 912 885 869 888 876 883 907 857 856 868 868 850 877 855 879 838 864 868 878 891 905 865 835 877 851 839 817 903 858 882 888 849 818 875 936 929 885 824 887 853 869 874 847 850 899 913 789 837 873 901 890 911 880 878 890 826 869 856 820 871 886 871 852 826 873 789 846 817 839 840 785 775 823 812 794 842 788 862 819 792 835 843 821 843 796 822 757 794 818 828 797 799 804 811 770 762 807 801 768 816 820 739 862 789 831 779 808 772 778 774 766 775 792 758 766 746 778 777 782 731 817 816 822 793 766 742 883 738 747 839 759 801 768 808 721 754 785 787 760 747 751 757 839 821 771 765 748 723 799 759 770 776 755 777 762 809 748 773 793 777 783 792 779 768 753 793 771 809 756 765 755 826 699 757 779 762 735 774 781 774 780 793 765 760 787 796 712 839 776 737 851 799 797 738 743 759 736 756 814 768 777 796 824 735 818 814 769 801 814 764 786 781 782 747 822 773 812 757 784 771 794 793 785 752 809 786 827 766 811 766 878 803 775 741 791 798 731 802 776 782 799 801 757 758 784 773 782 801 796 774 774 759 828 825 797 839 839 846 796 844 882 819 868 855 896 910 881 928 878 920 875 860 860 891 898 904 874 869 903 904 812 877 869 908 921 925 843 855 831 847 796 842 888 864 850 862 860 834 912 869 858 854 904 882 883 899 903 967 951 902 882 921 917 870 954 899 865 892 934 876 869 975 899 875 882 869 912 881 862 859 902 881 854 887 859 845 881 837 838 881 820 803 755 806 838 792 800 802 864 834 875 815 759 817 849 790 825 778 760 812 822 839 867 809 827 820 868 826 802 809 782 799 820 774 818 778 813 822 747 800 819 755 786 769 790 736 786 781 760 731 751 742 778 754 772 772 787 764 744 775 795 804 756 779 768 801 783 705 762 735 712 764 773 750 791 750 751 785 749 758 753 754 774 767 755 746 761 791 699 726 716 797 780 736 732 785 708 761 749 740 758 756 744 757 768 764 788 773 798 728 760 750 742 747 723 748 767 777 776 818 811 860 812 796 756 812 833 761 865 746 803 766 744 760 748 831 839 838 827 818 770 798 766 803 769 750 754 744 790 820 759 755 778 794 780 761 737 743 764 755 821 795 853 767 788 782 790 764 792 788 783 783 797 795 715 794 825 725 753 777 740 752 793 752 759 794 686 749 760 815 779 781 771 774 733 758 749 747 780 743 744 741 751 747 786 724 772 777 782 760 713 748 738 765 785 709 742 781 750 742 775 760 726 761 764 767 799 703 670 704 753 776 761 786 729 765 715 788 799 760 741 753 788 723 726 739 761 768 722 791 746 733 758 715 750 727 773 735 708 699 757 683 755 751 799 744 729 754 771 745 713 714 751 793 775 716 768 775 720 767 713 745 779 714 707 753 708 737 668 757 739 736 720 690 728 744 754 734 704 731 712 740 699 706 688 779 716 701 720 749 761 735 769 682 710 784 805 735 723 768 720 736 715 736 740 672 773 739 743 748 696 738 750 763 753 706 729 757 735 697 776 697 721 743 664 734 761 716 739 745 655 763 753 704 756 728 732 722 744 738 710 735 690 750 707 710 709 680 702 726 753 731 745 737 724 748 704 774 704 708 766 713 708 775 735 708 723 737 753 745 744 801 697 759 675 743 716 733 747 744 648 704 723 772 717 656 734 712 742 713 703 709 725 694 692 731 769 728 751 744 732 718 680 713 722 732 706 700 746 719 699 715 711 714 751 741 751 752 703 765 718 699 758 746 743 714 688 743 754 665 717 713 740 738 697 680 702 702 686 743 748 763 772 740 752 732 717 743 731 681 760 726 739 723 750 748 756 727 727 772 712 776 703 717 701 720 698 726 752 733 747 721 767 760 678 753 717 741 716 681 769 701 736 743 707 722 733 738 741 724 720 702 716 753 709 745 704 740 714 751 720 703 711 679 722 660 726 683 723 698 736 696 739 766 701 708 695 708 720 775 687 722 738 676 714 727 738 772 750 775 695 754 725 726 797 681 721 700 752 749 782 762 752 665 725 660 723 682 726 714 727 691 757 721 724 712 699 733 699 748 670 725 730 714 667 747 781 712 717 741 750 734 708 768 724 734 758 697 770 691 711 713 719 711 735 717 705 703 713 676 701 750 723 792 692 739 737 760 707 774 763 711 727 738 766 721 675 746 759 695 735 695 758 716 727 749 764 709 734 825 788 759 714 704 715 727 729 799 705 693 741 710 739 744 738 737 753 722 728 716 735 718 776 720 725 742 702 720 743 669 760 740 759 758 727 723 738 688 756 731 697 753 752 728 724 769 712 737 732 772 739 712 735 719 732 690 725 703 770 734 724 693 720 698 736 751 764 715 697 742 718 705 763 740 755 719 703 704 715 714 748 650 730 714 672 719 726 711 690 682 710 709 708 709 783 690 728 773 725 746 736 710 716 755 713 727 667 695 688 681 721 713 752 696 703 733 718 765 678 779 690 655 698 725 721 647 758 650 736 784 723 703 725 727 736 719 727 689 701 730 682 698 710 708 729 707 726 710 700 739 743 717 758 689 720 723 691 693 702 685 736 657 756 677 661 671 669 677 711 723 694 681 710 714 738 743 707 716 726 727 723 691 723 718 765 729 753 686 728 735 723 722 678 731 728 719 703 763 680 763 725 703 652 722 708 739 715 734 752 725 713 694 743 733 685 715 681 694 718 719 718 648 694 710 699 667 679 703 702 684 747 711 640 704 766 713 723 716 707 716 719 656 682 696 670 678 713 665 678 713 677 702 712 722 680 744 724 717 773 670 710 669 726 688 744 750 743 735 726 703 652 773 723 697 675 668 716 719 713 720 724 708 717 782 726 793 746 761 715 754 754 769 727 784 721 749 757 820 761 706 776 679 730 787 740 723 727 726 739 757 688 782 781 725 722 729 747 770 771 710 798 763 809 802 760 755 749 743 722 723 752 729 773 732 757 733 734 795 733 740 764 772 761 750 795 752 694 705 731 802 715 737 780 787 751 757 736 759 800 770 769 804 750 777 761 752 690 718 707 748 736 725 703 702 735 746 778 799 704 735 685 674 696 737 740 723 733 719 717 737 722 738 710 711 727 722 726 737 705 737 732 750 747 725 685 688 690 714 756 744 711 687 684 715 705 703 716 693 714 701 685 683 696 694 706 745 703 707 704 676 705 686 724 733 666 695 739 726 727 652 710 692 698 729 714 726 719 735 749 697 710 736 704 676 699 676 702 673 734 696 717 750 716 698 729 695 691 700 713 686 710 747 681 702 663 656 706 695 753 691 704 755 720 705 765 713 657 682 677 681 677 657 704 715 731 711 715 756 701 697 693 707 697 707 697 652 699 711 680 751 724 657 696 661 710 718 654 666 763 717 782 733 685 674 694 674 693 684 707 714 680 709 683 668 694 704 714 683 680 682 727 711 708 662 682 699 723 691 669 721 681 708 721 692 665 644 690 752 714 709 729 699 696 694 689 727 724 649 694 697 740 682 685 689 650 682 745 675 736 717 687 696 663 688 696 679 703 689 772 681 727 707 724 652 690 657 680 654 704 697 725 721 698 702 730 643 696 743 743 740 702 732 709 692 700 730 690 721 724 723 710 701 713 718 720 701 708 741 708 687 730 689 722 771 743 708 699 675 710 728 648 714 691 690 713 739 726 714 683 682 720 733 728 675 692 668 689 778 705 722 732 638 699 696 741 649 698 718 675 656 664 667 765 716 664 760 683 731 670 692 710 752 700 678 741 694 697 683 735 716 647 703 701 714 757 663 636 712 697 705 692 666 780 697 717 736 665 722 711 674 699 690 679 711 700 700 711 670 715 708 711 681 666 710 665 737 740 696 698 677 699 696 678 685 707 683 618 682 680 680 735 733 680 693 701 710 689 705 698 680 738 705 674 676 737 705 669 722 682 684 695 681 754 697 706 716 692 718 711 743 678 681 709 672 659 690 700 695 697 725 720 683 694 742 716 671 697 702 713 681 705 682 716 714 736 647 695 693 702 713 720 708 656 712 729 737 660 664 711 678 694 721 660 664 676 689 694 676 664 671 697 741 695 721 685 708 675 716 712 697 708 727 670 707 703 710 644 724 674 662 706 724 711 754 719 684 685 675 703 670 631 658 708 739 685 698 716 730 745 716 696 714 762 733 696 691 720 698 701 692 727 719 750 729 743 716 664 704 715 723 703 699 721 706 703 704 713 747 697 721 664 706 749 702 740 696 722 698 737 677 708 652 725 702 678 696 705 719 747 688 683 686 719 718 689 679 688 698 729 672 696 702 678 727 725 676 678 767 728 708 711 675 772 730 728 679 729 666 753 666 718 703 749 735 707 727 701 711 685 756 698 768 731 723 705 736 745 720 731 738 738 719 755 725 714 727 706 726 755 695 743 710 723 713 684 698 700 747 671 683 752 740 705 678 727 806 695 721 719 675 740 722 741 710 768 726 698 690 770 691 756 754 707 749 734 708 719 709 740 739 706 696 706 741 740 733 729 752 731 708 717 671 764 726 680 764 719 724 692 717 747 756 785 737 785 763 713 723 755 747 771 686 736 752 727 731 713 783 756 668 709 698 748 753 755 753 753 775 740 727 717 765 755 681 762 717 671 722 721 736 719 729 654 725 691 766 736 713 750 725 671 780 714 670 715 718 697 739 733 701 723 708 770 742 697 700 726 735 759 653 752 682 791 664 753 693 719 749 674 723 654 688 707 685 726 665 734 732 671 704 716 682 768 729 710 708 688 699 679 672 671 712 681 695 664 654 682 688 702 668 695 669 716 687 702 717 718 712 724 705 730 702 686 684 697 737 693 728 716 768 682 669 699 727 718 668 755 671 655 728 689 755 710 740 706 718 710 725 719 744 721 685 723 691 698 728 679 657 705 746 746 659 661 677 727 661 698 676 740 718 686 696 771 700 741 767 702 681 790 723 756 704 703 741 738 712 701 681 695 722 677 689 737 754 745 744 771 730 750 706 735 779 735 721 705 795 720 696 755 767 768 734 761 720 744 774 721 750 822 816 813 766 748 792 813 785 799 843 711 779 814 788 795 779 783 726 760 778 801 777 828 780 770 783 750 812 788 743 783 768 878 848 770 758 742 847 809 841 767 797 815 785 841 798 785 743 749 762 786 826 815 722 765 767 726 787 805 774 772 753 764 773 763 765 773 760 789 795 787 788 786 777 783 719 752 741 734 755 765 750 801 723 761 753 733 742 760 777 757 774 791 752 730 758 777 721 694 749 792 740 747 686 731 775 727 734 730 706 714 763 740 714 776 747 739 732 699 737 688 696 756 695 779 725 736 697 717 705 728 680 754 684 718 710 729 699 786 759 678 704 681 725 728 701 691 672 690 739 679 756 674 713 704 722 704 695 734 753 718 736 720 687 695 695 719 717 716 688 708 698 685 694 709 763 683 715 654 674 706 715 707 709 696 729 629 700 706 706 711 708 724 771 705 700 705 697 730 672 712 760 686 700 774 755 743 719 651 680 731 671 674 727 692 712 681 678 710 666 691 725 668 682 693 734 692 687 713 690 685 721 677 716 675 674 653 705 656 694 682 704 721 693 642 707 721 645 673 734 697 661 698 675 727 704 669 656 702 678 659 717 673 731 705 698 679 681 719 698 646 679 693 670 658 640 691 661 718 681 687 708 700 652 671 722 684 683 711 713 727 693 686 671 672 675 673 723 687 660 696 710 732 655 660 657 618 689 683 698 702 707 694 673 699 677 697 664 655 676 630 688 735 645 652 724 710 657 634 666 701 686 666 662 654 698 663 673 617 687 699 705 634 646 685 661 700 689 652 681 687 686 687 657 645 678 674 691 686 665 657 693 669 693 718 654 707 647 658 674 689 673 626 715 673 669 700 657 693 699 654 682 640 674 705 698 681 650 696 655 630 636 696 660 659 660 616 652 733 703 649 653 717 621 710 723 680 638 693 673 676 690 666 660 739 719 667 707 700 648 679 707 715 700 648 697 666 691 665 702 699 662 699 716 727 673 683 656 692 697 675 635 701 714 675 672 675 666 670 707 710 653 675 676 654 648 674 691 699 677 712 672 707 675 650 697 687 684 633 691 675 661 663 714 658 686 641 700 685 661 681 666 709 653 625 675 645 672 712 641 701 624 764 691 678 664 650 672 694 717 665 678 683 636 648 667 720 678 711 697 660 715 660 682 677 716 667 685 691 669 660 702 659 710 657 686 641 656 740 701 653 645 636 648 651 685 669 623 646 662 693 688 679 684 686 670 690 662 697 647 689 679 635 681 707 665 672 723 716 687 630 652 675 656 667 654 640 751 645 679 664 699 652 627 692 644 650 675 681 690 719 709 659 695 660 633 681 650 640 660 673 715 611 630 602 686 677 695 705 701 630 695 696 664 638 712 677 660 672 701 645 696 659 668 646 711 754 723 667 711 709 678 658 650 690 677 685 704 658 731 661 732 695 657 667 686 707 698 684 676 716 717 685 672 700 729 726 684 650 681 707 656 706 663 647 689 687 640 649 702 708 618 698 667 660 666 704 681 652 743 695 665 713 709 712 747 696 699 652 718 721 652 687 703 675 625 659 632 665 673 715 665 715 675 673 676 653 720 692 691 649 655 646 696 646 694 736 724 697 684 691 701 687 660 690 677 636 685 714 706 608 637 631 663 665 678 685 711 677 691 650 667 712 694 687 661 676 681 682 683 680 695 627 659 662 660 620 677 640 717 632 714 625 682 633 619 641 667 659 686 714 677 729 666 678 678 622 698 642 762 641 697 698 678 660 662 672 618 657 658 680 637 683 680 669 714 628 670 642 636 640 657 651 690 687 650 688 667 714 662 649 664 644 666 649 624 639 659 653 682 711 729 655 684 687 614 662 632 695 684 673 667 681 696 638 650 658 673 624 667 652 724 663 666 672 634 661 671 696 668 612 692 694 656 624 707 632 704 672 658 646 639 673 677 670 656 656 672 635 702 677 673 598 673 678 634 695 631 640 640 674 637 710 701 709 671 696 705 661 682 671 646 687 631 640 670 673 661 677 677 681 695 695 672 681 624 680 644 695 722 622 710 639 659 674 680 671 671 731 681 681 671 701 658 678 685 702 696 712 696 687 678 681 710 661 674 650 693 751 742 744 735 657 730 719 693 706 766 710 705 677 683 694 708 712 726 740 694 700 699 730 669 675 714 698 769 693 740 748 727 721 699 724 704 752 743 725 751 735 750 717 709 723 703 714 785 749 768 731 712 720 709 731 715 695 653 695 751 702 660 727 720 749 680 693 725 707 737 692 720 668 763 683 687 696 701 697 685 675 683 725 666 682 668 629 686 667 639 730 745 706 694 697 699 730 729 686 716 682 645 669 694 711 708 680 687 657 679 708 686 656 658 714 697 682 664 693 725 705 683 678 658 674 678 690 674 686 704 678 658 675 657 713 684 652 687 707 682 709 662 662 688 686 668 660 637 673 689 668 673 683 654 648 716 715 663 681 688 676 668 681 690 705 661 651 660 673 635 663 693 652 682 681 668 668 661 688 656 675 612 705 682 682 670 655 657 656 666 643 655 626 627 648 644 656 668 669 669 642 658 659 669 680 673 642 660 657 685 666 635 698 665 646 675 673 699 646 658 666 688 684 656 682 684 679 637 685 659 619 675 678 666 645 689 656 678 649 630 664 619 656 716 628 632 608 629 675 659 653 605 672 662 648 675 667 671 649 622 695 662 672 653 621 653 653 666 656 668 643 646 598 636 684 677 648 705 641 613 606 651 640 643 631 683 702 690 651 658 621 647 642 674 659 652 672 682 643 646 679 651 625 647 704 641 658 662 612 635 656 674 665 713 636 669 620 644 665 649 676 628 683 616 665 626 631 669 663 682 622 676 659 677 720 628 723 627 658 653 660 685 603 682 617 690 639 659 638 689 638 652 642 624 627 653 659 643 602 615 608 656 643 646 643 644 656 641 651 639 682 652 731 665 626 669 661 654 647 641 688 695 646 727 666 670 665 644 667 697 647 649 667 644 628 646 617 615 645 666 666 630 650 662 670 639 688 618 636 699 666 671 601 645 660 641 607 647 632 604 610 668 670 660 656 647 631 632 708 606 653 621 666 654 667 611 660 668 612 672 650 613 646 693 674 645 649 671 606 630 647 704 660 660 640 666 652 653 635 711 594 661 619 619 644 670 626 605 652 656 659 658 673 653 618 599 630 670 625 597 675 624 670 667 667 650 659 660 672 661 670 667 609 631 651 651 672 611 620 661 653 666 671 683 658 636 652 665 659 623 622 654 651 618 652 631 656 661 668 654 632 674 636 713 641 642 626 675 658 644 650 645 629 683 664 611 655 594 636 657 655 639 653 688 594 636 634 646 611 628 631 672 602 675 620 656 669 623 670 627 645 627 707 673 692 660 622 627 629 647 611 689 655 649 653 612 656 646 665 657 655 672 669 663 623 689 671 682 682 646 638 656 623 659 611 631 656 661 666 704 658 618 644 636 664 615 642 691 623 672 673 676 631 679 690 622 643 641 655 644 633 645</counts>
			</dataPoints>
		</scan>
	</xrdMeasurement>
</xrdMeasurements>
