<?xml version="1.0"?>
<xrdMeasurements xmlns="http://www.xrdml.com/XRDMeasurement/2.3" xmlns:xsi="http://www.w3.org/2001/XMLSchema-instance" xsi:schemaLocation="http://www.xrdml.com/XRDMeasurement/2.3 http://www.xrdml.com/XRDMeasurement/2.3/XRDMeasurement.xsd" status="Completed" recordIdentifier="{EDCE1FE1-5716-4426-B39D-A7DFA4CA8B56}">
	<comment>
		<entry/>
	</comment>
	<sample type="To be analyzed">
		<id>GPSS_Li1p5Fe0p8Cr0p3Cl4_111725_691b7e20f3837ac4a0a9936f</id>
		<name></name>
		<preparedBy></preparedBy>
	</sample>
	<xrdMeasurement measurementType="Scan" status="Completed" sampleMode="Reflection">
		<usedWavelength intended="K-Alpha 1">
			<kAlpha1 unit="Angstrom">1.5405980</kAlpha1>
			<kAlpha2 unit="Angstrom">1.5444260</kAlpha2>
			<kBeta unit="Angstrom">1.3922500</kBeta>
			<ratioKAlpha2KAlpha1>0.5000</ratioKAlpha2KAlpha1>
		</usedWavelength>
		<incidentBeamPath>
			<radius unit="mm">145.00</radius>
			<xRayTube id="1010048" name="Empyrean Cu LFF HR (9430 033 7310x)">
				<tension unit="kV">40.0</tension>
				<current unit="mA">15.0</current>
				<anodeMaterial>Cu</anodeMaterial>
				<focus type="Line">
					<length unit="mm">12.0</length>
					<width unit="mm">0.4</width>
					<takeOffAngle unit="deg">6.0</takeOffAngle>
				</focus>
			</xRayTube>
			<sollerSlit id="21010002" name="Soller slits 0.04 rad.">
				<opening unit="rad">0.0400</opening>
			</sollerSlit>
			<mask id="22031000" name="Fixed mask 13 mm">
				<width unit="mm">9.00</width>
			</mask>
			<divergenceSlit id="22120001" name="Divergence slit 1°" xsi:type="fixedDivergenceSlitType">
				<distanceToSample unit="mm">50.00</distanceToSample>
				<height unit="mm">1.52</height>
			</divergenceSlit>
		</incidentBeamPath>
		<sampleMovement xsi:type="spinningSampleMovementType">
			<spinnerRevolutionTime unit="seconds">1.0</spinnerRevolutionTime>
		</sampleMovement>
		<diffractedBeamPath>
			<radius unit="mm">145.00</radius>
			<antiScatterSlit id="22090040" name="AS slit 9 mm (PIXcel)" xsi:type="fixedAntiScatterSlitType">
				<height unit="mm">9.00</height>
			</antiScatterSlit>
			<sollerSlit id="21020003" name="Large Soller slits 0.04 rad.">
				<opening unit="rad">0.0400</opening>
			</sollerSlit>
			<filter id="20030001" name="Large beta-filter Nickel">
				<material>Ni</material>
				<thickness unit="mm">0.020</thickness>
			</filter>
			<detector id="7010019" name="PIXcel1D-Medipix3 detector" xsi:type="rtmsDetectorType">
				<phd unit="keV">
					<lowerLevel>4.02</lowerLevel>
					<upperLevel>11.27</upperLevel>
				</phd>
				<mode>Scanning</mode>
				<activeLength unit="deg">5.542</activeLength>
			</detector>
		</diffractedBeamPath>
		<scan appendNumber="0" mode="Continuous" scanAxis="Gonio" status="Completed">
			<header>
				<startTimeStamp>2025-11-19T11:52:42-08:00</startTimeStamp>
				<endTimeStamp>2025-11-19T12:00:49-08:00</endTimeStamp>
				<author>
					<name>AutomatedUser</name>
				</author>
				<source>
					<applicationSoftware version="1.7b (136)">PANalytical Aeris Instrument Suite</applicationSoftware>
					<instrumentControlSoftware version="3.2.00000000 20240306">AERIS</instrumentControlSoftware>
					<instrumentID>950485</instrumentID>
				</source>
			</header>
			<dataPoints>
				<positions axis="2Theta" unit="deg">
					<startPosition>10.00943322</startPosition>
					<endPosition>99.99442286</endPosition>
				</positions>
				<positions axis="Omega" unit="deg">
					<startPosition>5.00471661</startPosition>
					<endPosition>49.99721143</endPosition>
				</positions>
				<commonCountingTime unit="seconds">12.495</commonCountingTime>
				<counts unit="counts">3078 2937 2914 2985 2954 3002 3037 2985 3031 2973 2971 2899 3051 3023 2998 3036 2918 2915 3015 2944 3005 2965 3038 3087 3068 3048 3097 3034 3065 3018 3069 3079 2992 3050 2954 3066 3070 3073 3040 3093 3069 3070 3108 3090 3059 3088 3180 3133 3140 3189 3235 3117 3152 3073 3082 2997 3129 3193 3123 3179 3150 3173 3148 3347 3181 3173 3133 3224 3164 3254 3195 3323 3272 3235 3343 3227 3225 3206 3254 3198 3245 3228 3295 3334 3232 3248 3338 3341 3246 3262 3268 3352 3150 3205 3309 3310 3289 3309 3349 3392 3222 3210 3292 3210 3381 3346 3302 3281 3316 3286 3350 3263 3316 3288 3313 3355 3224 3316 3267 3240 3295 3354 3415 3295 3347 3199 3334 3375 3251 3232 3316 3326 3295 3230 3314 3213 3310 3259 3289 3317 3362 3276 3290 3296 3342 3332 3232 3377 3264 3337 3339 3333 3296 3188 3332 3265 3254 3320 3355 3227 3349 3342 3164 3205 3394 3395 3302 3288 3376 3289 3306 3272 3219 3346 3157 3240 3248 3303 3340 3230 3326 3229 3273 3226 3241 3234 3207 3267 3268 3202 3261 3303 3197 3213 3321 3326 3375 3282 3278 3240 3364 3183 3287 3254 3160 3045 3168 3215 3171 3252 3161 3121 3162 3184 3174 3205 3262 3213 3277 3165 3236 3133 3172 3223 3117 3239 3221 3199 3089 3073 3158 3099 3210 3173 3240 3082 3117 3117 3169 3077 3186 3142 3169 3157 3178 3083 3144 3071 3225 3098 3117 3111 3197 3002 3081 3140 3136 3089 3151 3133 3178 3076 3027 3062 3039 3128 3120 3078 3075 3030 3117 3154 3049 3150 3091 3142 3109 3145 2967 3108 3037 3051 3066 3180 3083 3090 3087 3107 3097 3058 3112 3087 3083 3060 2979 3093 3097 3107 3181 3134 2948 3055 3158 3029 3092 3092 3135 3170 3096 3153 3010 3123 3037 3121 3008 3041 3154 3043 3068 3160 3149 3120 3162 3159 3035 3168 3118 3038 3107 3198 3098 3088 3198 3112 3150 3227 3164 3109 3136 3205 3123 3133 3028 3200 3217 3031 3200 3112 3228 3259 3231 3177 3118 3144 3244 3189 3269 3280 3215 3210 3328 3248 3243 3219 3259 3311 3256 3251 3370 3357 3400 3333 3306 3274 3368 3382 3236 3264 3239 3326 3321 3328 3282 3309 3385 3321 3365 3304 3316 3440 3402 3308 3414 3354 3490 3414 3328 3449 3516 3469 3480 3337 3430 3573 3386 3548 3484 3469 3470 3547 3428 3600 3397 3492 3466 3542 3572 3402 3549 3615 3618 3575 3697 3495 3561 3634 3714 3600 3637 3701 3654 3686 3637 3686 3634 3732 3673 3599 3745 3557 3621 3732 3502 3655 3640 3582 3554 3638 3613 3573 3591 3532 3681 3592 3586 3572 3508 3584 3536 3485 3539 3581 3656 3654 3606 3512 3574 3681 3584 3462 3660 3644 3582 3719 3690 3606 3625 3787 3647 3658 3768 3732 3694 3827 3671 3651 3834 3772 3891 3798 3784 3817 3891 3850 3829 3823 3858 3761 3823 3656 3663 3770 3632 3734 3521 3526 3528 3568 3521 3395 3376 3562 3447 3432 3477 3413 3454 3360 3294 3352 3385 3399 3323 3323 3272 3254 3341 3449 3342 3222 3232 3331 3193 3248 3257 3205 3239 3215 3263 3291 3279 3140 3220 3167 3157 3172 3122 3278 3067 3096 3045 3074 3084 3156 3045 3098 3170 3079 3099 3200 2949 3056 3025 3064 2983 3146 3028 2941 3000 3051 2987 3083 3027 3000 3064 3008 3020 2924 2927 2969 2955 2905 3095 2939 2890 3019 3049 2956 3037 3017 2897 2978 2854 2964 2862 2893 2943 2916 2938 2944 2910 2901 2955 2956 2855 3036 2839 2896 2914 2879 2951 2894 2886 2876 2905 2852 2900 2962 2958 2869 2858 2857 3008 2816 2928 2858 2834 2872 2775 2810 2830 2882 2821 2922 2876 2898 2812 2838 2853 2873 2891 2783 2723 2773 2852 2828 2926 2787 2794 2768 2864 2855 2840 2810 2744 2802 2813 2778 2830 2798 2768 2915 2743 2864 2856 2816 2836 2736 2691 2731 2750 2817 2772 2751 2770 2823 2859 2700 2768 2802 2727 2780 2740 2748 2814 2811 2773 2761 2808 2702 2757 2796 2687 2685 2829 2723 2636 2812 2713 2838 2706 2723 2729 2839 2776 2718 2693 2850 2799 2725 2675 2729 2640 2716 2817 2715 2836 2631 2686 2694 2643 2646 2695 2682 2666 2743 2660 2671 2734 2606 2669 2662 2577 2737 2687 2736 2695 2629 2696 2646 2704 2675 2768 2759 2728 2709 2720 2647 2700 2657 2609 2711 2668 2723 2644 2681 2746 2650 2749 2645 2662 2712 2675 2681 2639 2668 2760 2761 2684 2685 2697 2617 2593 2694 2589 2623 2525 2712 2639 2616 2777 2745 2664 2669 2633 2613 2602 2629 2664 2642 2655 2647 2644 2682 2596 2516 2511 2671 2636 2633 2568 2639 2698 2563 2560 2607 2600 2618 2620 2513 2684 2643 2546 2571 2680 2483 2628 2569 2669 2640 2589 2539 2610 2551 2558 2625 2628 2503 2531 2518 2561 2640 2545 2575 2575 2610 2549 2541 2449 2491 2554 2647 2577 2581 2561 2491 2473 2547 2550 2533 2561 2622 2550 2539 2495 2619 2517 2594 2586 2563 2517 2523 2567 2596 2470 2564 2525 2506 2503 2547 2554 2453 2456 2589 2471 2573 2492 2445 2511 2529 2583 2557 2570 2539 2485 2490 2539 2489 2475 2453 2584 2527 2488 2482 2539 2442 2478 2532 2495 2492 2480 2467 2383 2428 2449 2476 2466 2378 2473 2619 2543 2371 2442 2478 2461 2560 2433 2499 2487 2435 2534 2426 2445 2423 2462 2419 2510 2311 2455 2476 2287 2435 2309 2366 2460 2369 2468 2358 2391 2385 2414 2448 2348 2365 2373 2346 2401 2377 2385 2404 2509 2450 2414 2374 2322 2485 2371 2448 2357 2313 2366 2342 2470 2338 2440 2327 2379 2346 2370 2421 2488 2422 2362 2481 2403 2448 2388 2280 2405 2297 2357 2306 2467 2430 2341 2303 2354 2407 2389 2400 2412 2364 2275 2458 2338 2328 2399 2403 2317 2378 2340 2309 2454 2293 2353 2305 2335 2270 2369 2431 2341 2353 2299 2431 2435 2340 2303 2368 2306 2388 2345 2357 2403 2299 2386 2324 2383 2369 2385 2391 2257 2323 2315 2321 2406 2303 2342 2370 2331 2417 2390 2406 2339 2374 2287 2484 2293 2339 2356 2335 2374 2316 2430 2387 2361 2411 2354 2329 2388 2279 2451 2300 2370 2377 2325 2327 2387 2381 2371 2357 2324 2443 2343 2380 2365 2331 2428 2453 2381 2409 2388 2469 2498 2386 2428 2377 2365 2374 2322 2414 2488 2381 2378 2376 2357 2381 2418 2319 2389 2399 2364 2380 2318 2227 2295 2383 2305 2322 2398 2313 2390 2322 2395 2320 2403 2303 2305 2369 2489 2314 2334 2461 2319 2360 2330 2387 2325 2347 2367 2336 2235 2392 2282 2255 2276 2365 2376 2392 2294 2246 2255 2301 2263 2323 2379 2226 2323 2330 2287 2257 2275 2333 2261 2371 2272 2331 2380 2294 2243 2290 2225 2236 2229 2289 2327 2351 2197 2256 2248 2258 2241 2260 2252 2263 2148 2250 2181 2139 2212 2110 2179 2114 2222 2140 2158 2247 2155 2254 2155 2131 2114 2098 2052 2190 2159 2114 2136 2078 2101 2131 2140 2088 2028 2123 2051 2093 2077 1968 2203 2100 2161 2075 2012 2201 2092 2131 1960 2063 2043 1983 2087 2168 2094 2092 2069 2005 2035 2012 2052 1981 1981 2018 2020 1983 2000 1995 2024 2003 2047 2081 1973 1969 1927 1862 1963 1905 1951 1918 2033 1974 1937 1932 1881 1987 1874 1927 1982 1990 1913 1902 1861 1933 1952 1886 1814 1760 1907 1781 1882 1891 1833 1821 1879 1839 1881 1933 1921 1915 1819 1887 1814 1848 1849 1889 1809 1816 1853 1841 1829 1823 1804 1799 1827 1861 1776 1762 1821 1843 1819 1740 1752 1845 1854 1846 1770 1763 1786 1699 1681 1748 1849 1801 1795 1724 1849 1739 1827 1769 1755 1825 1696 1821 1749 1696 1718 1705 1708 1701 1752 1794 1709 1728 1656 1785 1761 1744 1747 1707 1749 1754 1758 1808 1798 1761 1787 1716 1801 1728 1734 1647 1753 1741 1712 1649 1719 1751 1694 1707 1717 1741 1729 1716 1724 1734 1655 1722 1698 1757 1806 1722 1775 1772 1753 1712 1724 1688 1690 1720 1735 1710 1683 1683 1747 1793 1766 1745 1755 1717 1732 1748 1695 1676 1751 1686 1698 1739 1630 1749 1703 1667 1771 1775 1742 1763 1671 1691 1726 1645 1623 1684 1710 1787 1667 1737 1671 1702 1634 1719 1693 1729 1705 1676 1696 1710 1726 1735 1760 1710 1704 1706 1677 1735 1754 1698 1743 1778 1802 1635 1702 1706 1716 1610 1688 1728 1722 1746 1670 1665 1700 1744 1780 1700 1681 1792 1673 1735 1749 1710 1803 1734 1730 1801 1716 1608 1789 1701 1694 1828 1778 1740 1652 1730 1762 1634 1698 1612 1684 1720 1726 1714 1701 1727 1659 1774 1690 1771 1683 1721 1679 1674 1661 1726 1734 1674 1788 1745 1719 1687 1725 1707 1611 1729 1699 1708 1693 1718 1719 1785 1745 1738 1689 1718 1738 1624 1661 1712 1661 1661 1641 1670 1745 1681 1666 1675 1686 1748 1714 1708 1636 1692 1618 1679 1711 1690 1680 1679 1740 1619 1609 1647 1647 1692 1626 1602 1657 1651 1608 1653 1693 1670 1611 1623 1678 1631 1557 1604 1634 1557 1600 1644 1651 1684 1689 1635 1568 1596 1711 1563 1556 1608 1568 1557 1600 1606 1588 1583 1670 1584 1560 1602 1507 1553 1577 1526 1546 1588 1553 1578 1553 1631 1437 1633 1493 1621 1477 1585 1548 1529 1434 1549 1544 1505 1492 1500 1574 1485 1433 1525 1490 1603 1465 1502 1478 1551 1487 1452 1556 1429 1490 1395 1567 1455 1544 1438 1457 1523 1503 1509 1467 1443 1411 1438 1401 1489 1446 1484 1443 1506 1467 1428 1435 1335 1462 1407 1434 1455 1400 1428 1430 1453 1405 1380 1441 1493 1415 1450 1450 1406 1426 1424 1411 1424 1440 1397 1403 1425 1395 1445 1433 1328 1436 1322 1351 1403 1345 1416 1352 1385 1355 1359 1352 1396 1331 1436 1331 1400 1345 1402 1365 1388 1447 1348 1433 1394 1413 1391 1397 1407 1459 1398 1477 1450 1390 1365 1410 1453 1442 1370 1408 1404 1458 1427 1453 1419 1428 1351 1484 1358 1377 1381 1333 1368 1345 1331 1375 1350 1376 1394 1342 1405 1369 1406 1300 1345 1315 1375 1345 1374 1406 1389 1422 1410 1383 1353 1351 1391 1346 1412 1426 1419 1427 1361 1358 1410 1449 1386 1389 1410 1510 1404 1407 1459 1382 1448 1365 1355 1385 1395 1427 1300 1369 1421 1332 1293 1359 1329 1338 1329 1348 1303 1238 1373 1299 1334 1330 1309 1237 1290 1288 1229 1291 1266 1295 1254 1347 1220 1245 1262 1318 1252 1288 1362 1309 1298 1320 1287 1276 1317 1262 1327 1369 1346 1301 1297 1350 1306 1297 1399 1345 1358 1328 1332 1334 1378 1287 1312 1394 1354 1328 1290 1278 1312 1281 1256 1328 1299 1223 1281 1273 1327 1283 1305 1224 1239 1264 1254 1222 1266 1328 1246 1234 1264 1283 1283 1317 1302 1239 1251 1239 1280 1244 1333 1271 1260 1235 1369 1298 1351 1224 1318 1368 1361 1367 1403 1364 1367 1321 1349 1383 1401 1391 1392 1361 1281 1285 1348 1276 1320 1287 1284 1251 1275 1322 1243 1255 1249 1219 1240 1271 1221 1214 1225 1218 1197 1176 1171 1129 1217 1180 1183 1260 1165 1103 1141 1173 1166 1139 1112 1101 1153 1142 1165 1092 1197 1035 1154 1056 1103 1116 1086 1080 1109 1070 1109 1056 1068 1136 1134 1059 1065 1076 1069 1124 1091 1112 1036 1039 1077 1086 1102 1080 1061 1074 1130 1157 1072 1062 1047 1064 1049 1115 1104 1095 1090 1107 1066 1133 1044 1062 1049 1054 1085 1103 1053 1010 1007 1104 1026 1039 1041 1073 1074 1066 1053 1079 1017 1031 1089 989 1024 1034 1072 1040 1019 1075 1016 1014 1072 1049 1048 1107 1097 1064 1069 1039 1034 1036 1098 1008 1056 969 1042 1137 1043 983 1056 1000 1031 1077 1021 1044 1020 1035 1076 1003 1025 1048 1049 1018 1002 994 1032 1024 1070 1015 1093 1024 1030 1016 1010 994 996 1050 1112 1097 1031 964 1029 997 1003 1024 1113 983 1051 1022 1113 1015 1004 1021 1018 1040 1059 1032 1044 1026 1049 1118 1043 1066 1044 1018 1080 1064 1049 1083 1048 1109 1110 1059 1120 1075 1114 1059 1101 1071 1096 1071 1051 1154 1097 1034 1118 1106 1081 1079 1160 1109 1122 1098 1036 1082 1045 1089 1041 1070 1052 1084 1017 1048 1096 1007 1045 1100 1114 1079 1105 1005 1028 1019 1061 985 1099 1013 1046 1054 1063 1048 1060 1033 1043 1082 1032 1099 997 1053 1072 1033 961 1073 1028 1074 1018 1115 1081 1047 1083 959 1068 1030 1030 1027 1068 1042 1054 1021 1034 1067 1084 1076 1098 1030 1087 1024 1107 1144 1012 1043 1070 1087 1072 1090 1053 1053 1041 1091 1051 1085 1197 1072 1068 1042 1079 1097 1075 1045 1139 1108 1010 1060 1079 1084 1012 1028 1036 1070 1087 1029 1072 1052 1050 1055 995 1053 1076 1024 1031 1049 1021 990 1068 1051 1077 1071 997 1020 1017 1056 997 1006 1029 1072 1011 1005 1022 1048 1051 1033 1075 1044 1109 1034 1034 1090 1075 1058 1051 1092 1127 1191 1157 1166 1121 1141 1198 1223 1197 1228 1244 1279 1225 1233 1294 1321 1360 1298 1349 1298 1309 1326 1358 1301 1363 1399 1386 1342 1353 1361 1319 1382 1273 1401 1357 1370 1314 1291 1265 1373 1239 1312 1232 1326 1371 1251 1323 1339 1388 1291 1345 1251 1304 1320 1280 1385 1392 1309 1360 1387 1419 1431 1370 1407 1446 1452 1525 1511 1538 1481 1524 1532 1571 1571 1538 1582 1624 1501 1621 1455 1520 1540 1513 1519 1416 1485 1436 1434 1457 1443 1459 1418 1391 1439 1448 1397 1381 1418 1359 1426 1349 1355 1357 1305 1350 1264 1272 1240 1249 1220 1283 1197 1161 1149 1210 1157 1181 1176 1141 1092 1097 1049 1096 1045 1098 1119 1007 1019 1061 981 993 1061 1036 984 1012 980 1025 970 949 919 965 986 987 1006 1041 963 974 900 951 1005 996 957 994 938 927 962 910 999 908 927 990 962 926 967 889 909 901 922 938 928 914 881 995 893 938 940 935 920 926 972 908 973 933 978 918 890 942 899 903 900 973 912 877 973 839 939 875 972 926 920 932 918 914 903 883 930 926 915 950 920 901 954 893 914 937 856 869 869 905 952 908 922 875 902 880 878 899 883 860 888 839 892 850 930 898 840 883 944 871 928 870 925 889 888 904 821 954 864 915 920 869 878 875 911 825 915 881 877 864 932 876 920 905 923 910 871 936 867 903 892 891 894 881 872 856 861 878 895 871 839 825 841 934 909 885 891 945 903 888 895 887 877 882 871 884 838 855 867 886 832 888 863 879 863 852 861 842 868 871 883 963 847 865 811 890 835 875 866 876 878 880 874 936 875 887 879 880 849 859 896 827 908 887 880 867 855 871 868 887 890 894 853 842 859 842 889 855 866 867 860 845 888 811 871 876 881 907 869 845 874 865 828 894 858 897 887 834 886 886 926 893 931 875 881 861 919 875 836 844 899 922 824 881 887 866 877 911 831 866 871 892 846 849 876 830 850 859 865 831 863 892 841 838 821 875 868 872 848 848 813 827 846 933 800 868 858 846 875 853 771 836 869 828 869 823 843 873 834 841 805 836 890 809 875 822 864 896 845 807 844 821 881 836 833 807 863 851 880 848 844 824 834 848 875 784 843 777 798 797 794 814 822 817 804 832 801 792 779 839 784 788 819 775 838 857 812 824 796 828 804 831 746 822 788 824 846 832 848 838 820 858 861 804 834 826 797 810 861 779 851 832 835 815 826 806 769 778 790 817 811 782 831 813 830 836 770 791 777 797 822 855 768 839 770 815 793 759 805 794 827 805 720 805 805 847 752 783 810 745 792 802 800 780 814 802 786 794 801 864 805 837 835 819 776 822 784 807 811 806 791 868 804 767 760 789 840 794 807 856 776 756 762 838 857 782 850 780 803 816 792 789 806 824 802 752 809 814 787 834 835 829 877 805 842 784 845 802 819 779 841 839 810 786 813 841 823 840 839 812 809 764 790 838 818 747 818 814 840 790 763 889 866 803 801 772 792 790 816 823 792 864 838 788 885 819 813 723 862 821 832 823 768 846 797 804 789 797 788 819 787 775 791 794 729 786 829 785 766 837 825 781 838 766 802 800 807 792 824 785 784 801 856 772 837 787 808 792 771 793 740 751 818 853 798 771 811 796 865 818 804 818 753 737 788 777 782 769 738 836 749 805 862 802 748 727 788 781 782 744 787 739 782 790 788 782 797 833 818 789 819 762 826 759 782 742 763 768 755 770 842 784 849 834 801 797 784 797 824 753 780 814 750 793 752 758 745 777 792 772 799 779 732 755 778 806 850 802 765 786 795 827 763 779 782 793 787 784 787 803 776 766 815 753 788 812 723 787 789 810 837 778 743 791 835 744 746 799 785 759 842 784 832 759 799 793 789 788 750 791 800 792 733 771 764 740 751 757 803 786 758 833 789 781 817 820 817 802 734 754 811 764 810 821 760 806 841 801 827 787 789 796 800 738 781 773 778 760 788 791 803 816 771 790 848 737 850 789 767 771 721 772 771 756 778 779 803 734 766 710 735 753 806 825 766 787 763 747 788 736 803 786 789 742 783 754 792 794 766 823 777 778 830 770 793 766 813 767 791 743 764 785 734 780 761 798 782 788 760 740 780 832 774 709 769 790 764 739 792 803 714 762 789 800 783 745 807 758 777 818 760 727 828 777 758 792 760 801 746 782 767 773 778 783 777 778 755 812 771 784 814 756 743 803 747 731 816 782 765 756 793 775 796 796 783 791 739 757 759 835 819 775 730 725 751 759 794 719 734 778 721 761 764 778 777 754 752 778 783 781 752 758 781 762 735 798 752 765 730 737 774 775 758 724 764 783 791 737 743 789 780 756 785 801 749 799 792 782 772 827 794 790 715 745 751 880 822 766 774 791 832 814 779 762 778 814 818 772 790 783 781 773 756 834 801 800 779 806 806 830 833 825 805 814 850 801 803 797 747 835 826 842 815 839 818 838 778 834 878 799 813 793 838 808 752 754 834 787 850 766 780 822 811 808 820 770 847 797 830 796 800 836 837 815 856 797 801 845 840 809 761 845 815 807 803 832 805 825 743 765 723 767 829 815 845 795 792 825 812 745 751 792 804 848 843 791 800 796 750 768 703 815 803 767 787 712 723 740 721 756 804 703 748 760 700 756 810 737 777 748 738 773 818 821 760 725 767 780 749 814 787 767 736 737 730 779 755 779 799 761 744 721 790 724 779 718 751 730 765 751 749 764 768 807 762 778 779 768 810 733 756 745 748 748 760 684 808 802 712 798 795 690 732 750 785 711 800 739 749 733 751 692 755 742 756 760 725 738 706 773 741 749 701 694 739 709 755 736 756 715 696 755 701 739 735 745 741 764 742 742 710 754 774 731 738 785 755 673 749 740 769 754 734 701 760 733 763 747 720 739 723 705 746 758 693 702 733 753 693 778 743 741 731 737 758 738 693 711 744 761 723 746 697 705 735 745 749 737 680 691 753 759 778 735 689 714 734 765 776 748 703 787 757 711 698 725 712 750 745 782 675 715 739 690 736 726 719 774 754 767 766 763 720 752 749 758 752 769 723 724 746 701 704 740 729 667 722 709 732 692 774 723 702 766 755 757 766 726 736 716 772 712 749 749 731 703 730 762 745 771 738 742 711 754 729 784 730 739 762 752 738 747 733 719 750 740 733 713 735 779 777 756 773 716 740 733 723 777 730 747 716 814 770 771 771 816 755 793 789 804 733 768 829 825 780 788 803 825 819 843 831 866 872 882 871 907 858 915 937 969 1024 1049 1029 978 995 1013 975 959 1001 997 987 1011 987 998 959 966 1008 971 983 998 982 987 969 940 983 1008 1023 1037 1027 993 983 1011 952 982 981 943 997 989 1018 1034 992 1062 1057 1077 1012 1064 1058 1064 1113 1090 1087 1099 1086 1096 1115 1094 1073 1061 1137 1129 1151 1117 1041 1077 1025 1081 1008 1046 1044 1036 991 1039 939 980 989 984 918 914 898 891 975 916 902 932 967 931 971 902 939 926 941 882 956 936 839 922 894 889 898 870 878 869 807 842 855 816 829 827 844 810 805 772 837 768 821 776 785 811 816 746 830 741 792 802 845 801 780 788 736 762 787 799 731 757 732 756 755 786 733 775 795 752 731 772 723 812 745 741 713 787 740 765 787 777 730 732 771 721 737 746 747 764 752 756 786 792 707 768 745 737 733 754 752 740 752 723 737 697 753 698 786 735 740 741 707 721 766 719 721 703 746 722 737 702 669 679 715 704 721 756 714 776 723 705 737 741 743 755 689 737 652 760 782 721 727 771 744 706 755 755 760 701 767 764 713 751 743 784 757 703 746 739 712 730 721 746 747 688 659 712 739 710 723 720 777 730 723 791 731 702 707 756 760 727 687 744 719 723 726 731 721 715 732 776 701 737 735 778 755 757 648 745 797 761 755 747 795 737 787 722 803 759 707 740 738 741 750 722 759 764 732 777 729 763 716 706 744 706 709 736 756 725 739 717 765 733 732 705 719 723 716 751 691 771 727 725 720 731 730 712 748 734 726 715 767 758 735 693 718 743 749 726 728 706 737 735 754 757 728 777 721 774 733 755 754 713 675 750 687 755 697 653 654 667 695 654 684 754 709 654 684 701 684 702 667 693 688 667 668 684 710 715 711 675 740 690 701 662 651 677 698 694 695 684 693 698 670 694 668 689 674 681 713 688 692 658 684 669 668 649 728 637 675 660 683 667 717 710 716 679 655 686 737 721 699 687 696 673 669 699 642 699 652 670 693 699 677 689 692 700 675 622 676 674 641 671 706 699 662 680 665 655 649 632 657 625 687 685 706 734 687 647 664 692 651 690 676 645 676 657 678 695 682 689 648 703 719 715 703 626 651 677 683 671 714 626 689 703 715 648 677 686 673 667 678 690 715 687 651 668 651 705 729 721 717 631 698 684 699 700 701 683 633 658 640 690 686 660 652 694 641 619 678 643 666 640 656 695 663 645 656 707 680 644 642 661 749 630 667 698 672 685 656 689 634 665 680 683 658 663 637 687 679 649 681 662 694 666 685 645 650 638 664 719 658 686 681 696 653 665 674 694 706 651 629 693 655 645 686 663 655 632 597 717 658 678 685 619 689 676 723 664 678 659 702 688 637 615 671 667 705 635 687 723 712 703 713 589 664 657 667 672 663 703 648 687 687 671 627 647 668 675 631 676 682 648 638 642 640 655 662 665 651 645 633 715 625 673 721 698 641 665 728 638 681 651 657 636 648 651 656 698 670 636 702 652 674 662 676 682 645 692 698 702 645 661 600 710 668 666 647 649 664 664 634 642 612 681 614 713 705 658 655 657 646 643 690 701 650 632 681 625 663 704 677 662 701 685 669 647 653 643 664 634 628 677 652 648 612 659 658 647 642 640 646 648 663 663 615 633 640 679 670 651 680 657 637 686 672 637 684 648 654 638 662 667 689 668 685 617 653 645 622 626 665 658 649 643 633 586 620 653 652 601 662 681 638 662 639 670 634 676 644 685 635 628 667 673 627 648 617 701 654 675 663 659 637 661 654 636 609 640 630 632 636 619 630 636 667 621 698 672 622 614 628 659 642 644 662 712 660 669 626 600 674 667 595 649 592 667 624 591 663 661 635 672 649 663 654 646 642 673 662 696 664 678 666 642 604 670 666 643 664 656 604 714 643 673 663 651 676 640 633 647 622 651 648 594 662 651 710 667 705 644 650 643 617 692 634 675 694 684 660 656 676 664 665 651 667 648 634 689 692 674 665 656 640 703 650 682 684 662 628 670 654 670 716 646 646 618 712 653 669 675 666 655 664 713 634 667 680 643 715 726 654 701 687 645 675 692 726 699 711 736 677 678 696 714 724 691 708 642 689 666 659 672 701 614 683 706 683 682 670 714 627 635 708 643 641 680 573 657 737 665 682 666 689 715 616 652 688 658 650 603 652 656 640 584 643 647 641 624 627 617 725 659 664 654 657 654 647 609 629 650 619 620 668 642 698 631 643 651 600 643 654 703 706 662 653 654 632 567 670 636 648 674 653 652 631 651 682 639 655 639 630 632 630 587 624 670 628 650 585 689 629 621 644 634 695 632 640 624 593 615 638 592 633 631 648 653 659 661 591 653 631 630 626 646 636 644 651 669 640 613 655 672 652 653 625 594 597 630 642 636 679 624 641 628 641 615 635 660 648 645 596 625 700 609 621 606 584 629 649 603 645 626 632 636 622 647 632 660 651 620 676 663 601 642 642 638 672 626 599 684 671 610 623 651 679 660 633 634 633 630 630 608 647 618 665 648 665 634 619 672 664 661 636 659 639 640 638 636 650 639 662 689 685 704 666 680 662 679 677 714 640 610 662 653 664 701 644 659 706 700 680 698 698 698 683 680 680 705 739 662 696 675 690 660 714 655 639 684 728 683 721 699 731 659 692 688 638 700 675 697 733 723 732 720 708 716 707 702 661 652 776 717 733 699 730 678 720 744 748 739 655 716 702 694 702 741 753 752 708 717 717 703 761 678 656 696 694 719 657 670 638 635 621 671 677 685 747 674 697 696 680 682 630 677 683 658 655 649 632 651 648 678 680 648 699 653 718 668 653 677 633 666 656 640 643 641 664 690 668 629 677 671 615 659 664 645 617 643 673 672 626 617 666 620 620 607 646 596 646 681 638 597 636 616 608 622 583 642 629 589 589 648 623 632 618 580 654 638 622 627 613 656 655 561 621 635 663 645 645 619 628 636 564 648 650 624 607 609 608 615 624 580 666 603 623 648 673 614 622 652 626 575 631 652 662 617 606 630 614 636 638 597 711 619 670 641 641 638 637 595 627 658 650 614 647 598 601 675 620 610 640 665 618 633 692 605 641 618 610 639 639 597 668 635 601 617 611 633 621 667 662 599 619 642 654 645 617 598 651 651 630 641 659 620 624 653 652 662 626 679 669 620 681 617 601 630 590 604 628 674 598 688 590 653 644 617 635 674 636 646 590 649 630 670 629 616 658 676 633 614 624 615 636 644 640 598 607 574 622 608 608 643 656 630 586 571 624 591 641 564 642 608 632 600 653 614 647 636 642 619 604 622 556 617 603 666 603 604 625 598 645 615 593 680 583 605 596 621 594 602 599 634 630 614 626 558 631 573 571 626 629 544 649 601 618 613 651 621 607 673 596 622 612 572 605 588 626 608 604 605 616 616 597 606 575 630 619 585 605 581 570 605 612 582 602 616 607 561 604 606 571 617 567 611 588 603 571 638 606 627 621 600 580 524 596 588 600 597 627 551 599 607 607 557 598 561 567 571 639 589 630 639 621 618 623 607 576 598 590 616 658 561 631 619 591 620 590 634 602 594 553 569 597 605 619 589 615 589 619 589 629 611 610 632 629 613 617 575 605 597 598 585 612 600 616 615 629 628 582 618 593 615 594 612 597 580 618 576 587 617 632 567 568 571 596 602 561 544 609 582 604 615 613 618 615 618 606 616 600 631 543 566 595 625 579 577 583 592 608 586 594 587 584 621 599 590 568 608 585 595 536 610 595 605 577 594 566 581 617 581 606 600 620 578 570 600 621 553 606 604 574 604 590 594 568 596 583 614 591 628 609 563 583 605 618 601 617 568 609 595 588 561 595 600 582 573 597 602 600 620 598 555 593 598 594 604 602 593 595 556 593 612 595 595 554 556 587 600 578 609 623 585 601 560 542 583 610 579 599 572 621 605 607 594 626 568 606 606 605 615 596 579 608 584 660 629 604 609 607 561 615 603 572 608 600 573 571 574 598 575 600 639 573 590 621 583 601 600 604 560 577 639 578 567 592 579 625 603 619 588 612 617 575 611 603 582 596 603 601 554 601 580 585 600 576 577 587 656 617 539 619 567 587 565 598 639 624 592 577 575 594 588 624 621 570 552 581 604 566 620 547 601 564 594 600 591 623 580 562 567 584 554 600 613 608 589 594 560 638 585 619 542 600 581 574 596 617 611 564 580 597 594 603 595 642 542 582 609 596 603 600 564 649 602 579 593 594 577 610 633 605 595 581 597 601 566 606 615 541 600 656 587 552 637 616 628 650 563 643 655 621 623 606 551 600 603 636 624 588 563 592 598 587 605 646 671 605 682 632 657 622 657 585 606 604 585 629 547 580 590 606 573 592 572 588 586 557 569 613 591 631 611 591 577 589 621 585 599 592 584 585 554 594 592 545 638 594 615 585 592 549 580 577 578 580 588 594 572 573 565 596 597 578 585 584 579 536 591 586 617 560 622 557 605 566 633 621 605 596 591 613 563 580 575 613 584 574 581 577 539 613 556 619 585 608 580 563 600 615 576 551 574 613 534 608 579 552 593 590 619 605 606 574 560 571 565 615 608 601 569 585 567 572 572 597 573 608 549 610 594 604 613 589 584 589 529 625 561 619 606 580 577 606 601 602 569 572 575 581 581 604 586 575 590 563 599 588 592 604 576 594 597 562 607 573 509 569 581 576 586 596 629 635 604 574 594 621 584 579 619 530 631 577 595 556 568 587 571 589 572 633 572 592 603 610 585 628 570 612 538 633 576 624 584 586 596 574 615 611 594 585 573 569 589 595 577 581 591 570 601 615 573 570 572 555 578 578 560 549 568 578 564 580 610 579 598 571 584 640 651 617 615 608 589 589 600 613 602 594 581 591 578 591 626 649 600 587 600 620 577 592 593 610 644 587 621 601 613 633 611 602 569 646 581 603 587 572 580 574 543 595 608 605 586 609 587 667 591 588 600 562 634 604 582 612 612 608 601 654 561 647 588 610 590 627 596 633 645 653 622 577 637 580 563 576 632 610 596 612 577 577 635 598 536 571 594 545 612 580 627 589 627 591 549 605 570 616 610 641 593 595 628 567 645 579 578 610 583 576 535 613 588 609 578 582 623 581 611 554 573 578 574 635 618 614 644 624 594 594 584 566 599 601 613 557 548 612 614 627 569 581 597 610 569 553 610 576 637 604 609 606 559 548 589 583 589 580 617 581 626 581 611 609 571 571 559 575 577 599 592 560 599 637 612 584 560 574 569 573 591 605 612 616 561 568 586 604 579 575 564 572 582 564 607 623 569 565 587 626 557 592 563 632 557 580 599 585 603 561 590 597 626 559 582 612 574 584 570 620 547 572 597 575 594 593 621 570 581 573 609 578 615 625 567 586 588 557 556 601 577 584 566 580 580 579 606 570 567 571 595 567 597 610 616 584 577 607 563 552 601 542 575 597 584 594 603 608 627 592 591 602 560 602 576 579 592 613 613 581 575 574 553 541 583 568 583 577 545 649 617 595 590 595 601 632 563 605 578 612 609 587 551 548 584 598 536 523 576 557 619 556 615 547 591 561 580 598 622 605 553 629 589 599 558 583 594 574 553 552 573 545 588 593 559 551 593 622 612 602 557 600 554 587 621 604 590 585 598 599 496 559 612 545 521 558 588 599 564 579 593 591 585 594 583 546 602 550 589 610 576 560 576 575 593 560 617 538 540 564 577 620 570 534 559 554 590 632 546 573 589 572 576 574 657 571 571 580 568 554 560 612 586 614 595 590 582 620 573 585 572 586 564 600 571 564 571 577 614 627 597 586 600 568 621 565 612 582 644 586 556 601 551 620 601 598 601 572 598 565 586 622 589 604 563 548 599 547 590 620 622 602 632 574 551 591 635 587 644 579 595 618 585 579 572 649 601 562 621 596 571 590 581 607 602 605 620 573 588 593 596 614 607 580 577 615 594 573 584 544 578 579 532 565 558 591 578 582 570 536 603 582 557 587 583 610 593 599 580 549 559 545 520 620 600 652 574 595 607 595 593 611 613 572 643 561 588 613 652 585 558 563 594 541 589 554 599 587 605 590 585 607 602 584 613 589 608 562 619 598 569 582 565 568 596 589 546 630 599 609 580 622 616 609 587 577 585 562 610 605 557 612 643 580 600 646 599 555 639 577 583 571 647 607 597 565 612 568 573 659 630 580 557 567 587 596 572 576 599 567 580 575 619 572 644 612 650 566 567 577 598 607 577 618 583 545 628 631 553 627 588 582 669 553 616 579 591 578 639 598 542 638 589 582 603 605 571 566 607 574 565 590 568 627 561 619 580 604 609 568 602 637 630 646 567 594 593 596 583 612 590 593 581 600 577 606 617 606 571 559 608 627 606 582 608 634 579 564 600 594 638 584 548 631 570 594 579 583 627 634 598 602 592 580 603 620 558 566 600 582 567 576 589 578 604 606 611 603 556 584 612 588 621 607 591 576 619 625 601 563 645 599 629 630 587 599 668 615 597 626 587 587 639 683 651 605 594 594 641 600 581 584 560 621 589 579 610 635 627 573 572 613 600 646 611 609 613 612 613 616 594 623 608 592 614 596 621 624 639 600 640 589 648 588 599 588 627 596 555 609 624 586 592 583 632 577 618 561 622 596 628 605 600 635 586 604 584 602 594 601 612 598 591 592 593 590 563 620 638 564 631 567 610 620 657 619 606 641 573 614 610 614 612 640 593 620 578 618 602 604 597 534 591 629 656 580 593 607 592 577 623 649 604 589 622 613 612 544 576 643 609 633 618 586 595 588 602 647 597 557 603 626 603 580 590 629 571 632 647 593 679 577 611 589 593 645 584 604 623 615 639 603 626 590 564 638 610 605 597 619 593 647 599 592 541 586 597 564 625 556 620 590 589 609 606 593 615 577 561 619 508 584 632 638 599 643 602 594 580 618 623 554 618 602 590 643 576 588 599 628 605 615 620 591 596 593 587 539 590 607 621 634 597 592 622 588 587 604 604 611 594 636 604 643 645 590 602 634 638 643 624 647 672 590 579 633 633 640 608 653 667 632 624 631 681 597 652 639 685 660 593 637 662 663 568 601 631 681 584 628 611 650 607 660 655 603 672 701 680 707 619 691 716 662 659 669 625 650 660 634 618 684 659 690 573 650 599 645 632 678 653 649 599 614 697 605 611 688 592 604 632 654 634 646 645 588 657 637 607 630 644 633 606 596 642 666 646 596 643 629 649 643 603 666 630 646 645 621 652 652 576 633 607 638 629 633 649 613 586 623 616 632 622 607 632 632 611 589 631 641 588 607 629 568 635 597 607 682 632 566 606 636 618 610 622 618 662 678 639 599 601 599 618 565 657 605 650 624 644 587 611 572 618 607 606 596 603 601 569 631 594 574 607 588 586 570 610 576 631 589 589 604 603 594 564 605 597 590 624 548 593 608 586 622 612 588 626 623 591 565 600 574 603 537 518 551 597 632 591 581 634 614 596 598 576 579 629 597 575 607 611 593 589 595 595 605 591 582 573 599 600 585 572 597 623 610 582 591 586 609 594 610 609 567 617 575 611 616 563 580 586 598 636 594 643 613 644 569 542 590 612 596 564 567 588 558 608 594 600 589 596 580 590 577 557 587 579 551 604 599 569 585 585 573 596 622 576 600 587 562 633 590 610 608 560 536 616 626 601 539 541 573 574 582 595 564 595 588 548 605 621 606 614 563 608 569 555 586 601 553 547 558 546 595 570 558 548 552 559 581 634 554 546 590 566 594 636 582 565 587 541 523 565 599 533 573 533 573 574 533 557 610 604 565 607 618 553 624 603 602 593 592 607 561 593 577 591 590 590 556 591 601 576 569 549 575 603 580 563 558 581 542 569 589 591 617 586 566 547 586 572 549 544 571 586 593 604 615 525 573 599 562 614 579 615 525 549 558 587 551 573 584 540 591 576 613 547 548 562 567 595 557 553 557 593 569 608 605 644 560 627 564 593 613 609 549 567 607 592 554 604 563 587 574 586 560 560 560 586 553 585 525 583 582 555 554 543 611 599 600 565 574 614 569 612 547 540 579 548 568 609 597 602 599 565 577 559 565 592 528 615 523 559 550 544 538 598 516 553 566 582 529 620 565 539 570 560 558 582 604 565 616 614 588 572 603 569 591 584 590 510 589 580 585 563 576 601 588 592 578 530 580 560 605 597 580 551 583 595 571 570 613 598 572 587 581 538 549 575 557 599 579 579 526 554 571 588 566 607 577 561 544 619 588 589 532 581 515 559 556 612 572 565 561 597 572 549 553 570 576 553 617 559 594 573 570 583 549 564 588 597 591 600 546 534 579 594 561 571 566 560 571 614 564 612 537 581 557 556 566 567 584 554 568 552 574 551 552 570 606 552 571 557 547 522 609 567 587 575 607 606 595 586 590 553 539 608 548 582 565 597 579 588 564 595 571 623 557 590 551 576 518 616 583 569 553 570 557 590 548 550 532 548 611 551 602 621 603 623 567 594 591 565 606 612 608 588 580 552 635 598 576 591 583 572 531 545 586 536 547 584 559 599 596 566 583 589 576 558 566 620 590 592 552 575 572 573 543 553 585 600 581 598 560 578 557 658 591 574 637 574 561 598 557 585 592 567 628 557 553 571 568 530 544 539 600 538 551 569 559 585 601 587 571 594 580 592 559 570 606 571 529 601 632 571 587 594 544 585 520 597 511 620 544 583 537 573 532 538 578 586 570 574 565 556 592 599 584 611 585 532 561 549 492 613 577 595 564 580 536 563 579 582 582 564 556 556 579 552 558 596 607 578 588 571 569 583 595 566 611 568 570 594 547 595 554 573 565 630 593 548 609 565 567 582 575 584 621 591 586 564 536 583 580 539 553 563 596 599 573 574 554 548 552 553 556 549 600 563 593 580 557 601 582 593 568 565 560 594 576 570 553 591 566 525 591 540 574 499 555 573 576 564 531 564 562 558 580 522 547 595 600 576 603 591 593 593 584 546 547 601 562 553 592 575 587 576 602 564 574 568 535 570 552 575 592 588 574 542 562 585 530 611 602 633 578 572 581 600 581 564 545 601 541 616 591 586 529 559 529 548 569 598 637 590 622 537 532 562 603 628 549 595 575 606 530 589 590 563 557 555 610 547 618 577 602 626 631 615 599 604 627 578 602 573 591 575 570 564 652 600 607 589 616 606 577 620 656 581 613 639 592 615 669 657 619 597 611 614 540 586 590 567 585 618 629 561 600 552 595 588 597 579 592 625 617 614 577 577 617 630 614 581 550 582 563 623 599 568 585 537 576 557 629 598 555 584 628 638 585 603 588 593 572 591 607 573 611 622 551 635 559 564 585 610 538 637 585 604 549 616 605 583 591 634 597 587 564 594 536 596 577 592 601 583 541 543 610 602 624 590 557 584 585 557 581 560 574 598 600 588 626 580 599 558 554 545 579 546 599 584 593 564 592 576 558 627 596 602 563 580 616 525 585 553 582 629 549 588 582 562 604 580 566 585 571 584 613 581 559 571 535 561 587 572 591 564 595 581 569 593 628 602 631 591 544 562 602 570 545 585 527 538 543 575 580 615 615 549 574 566 583 566 562 527 588 575 529 586 560 578 523 577 547 615 550 540 533 607 582 587 573 551 563 547 527 587 556 598 576 558 566 595 516 533 588 569 549 546 575 536 563 552 605 581 587 596 584 555 603 581 567 566 583 577 601 566 533 577 582 551 526 512 589 572 555 514 581 584 521 532 587 608 564 585 506 574 581 555 560 585 514 600 593 586 575 590 593 585 555 593 605 562 553 557 536 590 575 564 575 553 584 554 596 597 590 554 563 583 635 562 561 578 597 560 563 565 552 563 585 587 547 572 551 577 593 561 510 574 542 529 559 525 551 572 507 593 579 546 586 558 568 557 584 545 542 519 555 541 566 541 592 564 612 601 574 566 568 583 563 558 589 600 559 580 553 582 529 557 565 534 579 560 601 562 551 561 552 529 553 575 567 542 538 562 547 536 556 631 577 529 561 541 580 601 563 516 579 585 564 541 563 635 515 573 572 561 540 560 572 593 594 612 582 574 558 565 529 595 537 596 571 555 582 561 554 586 587 522 540 580 574 574 528 596 576 575 558 578 589 581 492 550 579 577 602 522 530 537 535 533 557 517 551 585 588 569 587 567 546 558 593 576 571 590 548 545 550 553 588 560 576 522 590 581 520 534 574 545 551 530 561 549 540 562 563 522 584 552 577 538 533 538 562 569 548 571 518 599 591 570 581 595 535 600 571 557 569 532 515 599 547 537 554 525 547 560 601 584 561 564 528 512 543 622 564 550 520 553 535 521 567 561 569 583 536 578 563 585 508 571 559 576 549 545 547 522 570 579 578 543 592 570 581 575 573 604 541 560 551 588 544 570 602 630 574 551 564 592 588 562 585 594 538 541 542 540 573 550 551 541 576 572 581 553 542 551 531 588 545 558 555 548 612 599 553 548 607 597 523 589 559 591 560 530 557 519 565 541 556 556 570 583</counts>
			</dataPoints>
		</scan>
	</xrdMeasurement>
</xrdMeasurements>
