<?xml version="1.0"?>
<xrdMeasurements xmlns="http://www.xrdml.com/XRDMeasurement/2.3" xmlns:xsi="http://www.w3.org/2001/XMLSchema-instance" xsi:schemaLocation="http://www.xrdml.com/XRDMeasurement/2.3 http://www.xrdml.com/XRDMeasurement/2.3/XRDMeasurement.xsd" status="Completed" recordIdentifier="{F60D7801-6063-4266-B7D3-333DAA77A5BD}">
	<comment>
		<entry/>
	</comment>
	<sample type="To be analyzed">
		<id>GPSS_Li1p7Fe0p8V0p1Hf0p1Cl4_122125_69474145f4d05ae3d697aef1</id>
		<name></name>
		<preparedBy></preparedBy>
	</sample>
	<xrdMeasurement measurementType="Scan" status="Completed" sampleMode="Reflection">
		<usedWavelength intended="K-Alpha 1">
			<kAlpha1 unit="Angstrom">1.5405980</kAlpha1>
			<kAlpha2 unit="Angstrom">1.5444260</kAlpha2>
			<kBeta unit="Angstrom">1.3922500</kBeta>
			<ratioKAlpha2KAlpha1>0.5000</ratioKAlpha2KAlpha1>
		</usedWavelength>
		<incidentBeamPath>
			<radius unit="mm">145.00</radius>
			<xRayTube id="1010048" name="Empyrean Cu LFF HR (9430 033 7310x)">
				<tension unit="kV">40.0</tension>
				<current unit="mA">15.0</current>
				<anodeMaterial>Cu</anodeMaterial>
				<focus type="Line">
					<length unit="mm">12.0</length>
					<width unit="mm">0.4</width>
					<takeOffAngle unit="deg">6.0</takeOffAngle>
				</focus>
			</xRayTube>
			<sollerSlit id="21010002" name="Soller slits 0.04 rad.">
				<opening unit="rad">0.0400</opening>
			</sollerSlit>
			<mask id="22031000" name="Fixed mask 13 mm">
				<width unit="mm">9.00</width>
			</mask>
			<divergenceSlit id="22120001" name="Divergence slit 1°" xsi:type="fixedDivergenceSlitType">
				<distanceToSample unit="mm">50.00</distanceToSample>
				<height unit="mm">1.52</height>
			</divergenceSlit>
		</incidentBeamPath>
		<sampleMovement xsi:type="spinningSampleMovementType">
			<spinnerRevolutionTime unit="seconds">1.0</spinnerRevolutionTime>
		</sampleMovement>
		<diffractedBeamPath>
			<radius unit="mm">145.00</radius>
			<antiScatterSlit id="22090040" name="AS slit 9 mm (PIXcel)" xsi:type="fixedAntiScatterSlitType">
				<height unit="mm">9.00</height>
			</antiScatterSlit>
			<sollerSlit id="21020003" name="Large Soller slits 0.04 rad.">
				<opening unit="rad">0.0400</opening>
			</sollerSlit>
			<filter id="20030001" name="Large beta-filter Nickel">
				<material>Ni</material>
				<thickness unit="mm">0.020</thickness>
			</filter>
			<detector id="7010019" name="PIXcel1D-Medipix3 detector" xsi:type="rtmsDetectorType">
				<phd unit="keV">
					<lowerLevel>4.02</lowerLevel>
					<upperLevel>11.27</upperLevel>
				</phd>
				<mode>Scanning</mode>
				<activeLength unit="deg">5.542</activeLength>
			</detector>
		</diffractedBeamPath>
		<scan appendNumber="0" mode="Continuous" scanAxis="Gonio" status="Completed">
			<header>
				<startTimeStamp>2025-12-22T16:00:11-08:00</startTimeStamp>
				<endTimeStamp>2025-12-22T16:08:18-08:00</endTimeStamp>
				<author>
					<name>AutomatedUser</name>
				</author>
				<source>
					<applicationSoftware version="1.7b (136)">PANalytical Aeris Instrument Suite</applicationSoftware>
					<instrumentControlSoftware version="3.2.00000000 20240306">AERIS</instrumentControlSoftware>
					<instrumentID>950485</instrumentID>
				</source>
			</header>
			<dataPoints>
				<positions axis="2Theta" unit="deg">
					<startPosition>10.00943322</startPosition>
					<endPosition>99.99442286</endPosition>
				</positions>
				<positions axis="Omega" unit="deg">
					<startPosition>5.00471661</startPosition>
					<endPosition>49.99721143</endPosition>
				</positions>
				<commonCountingTime unit="seconds">12.495</commonCountingTime>
				<counts unit="counts">3375 3303 3485 3436 3344 3444 3432 3383 3352 3391 3428 3349 3442 3440 3435 3357 3444 3303 3517 3507 3387 3407 3436 3373 3431 3354 3508 3397 3480 3371 3430 3467 3482 3558 3446 3458 3441 3497 3491 3385 3583 3398 3494 3467 3468 3442 3510 3480 3481 3499 3547 3481 3549 3425 3463 3465 3509 3491 3593 3616 3655 3575 3473 3513 3608 3530 3576 3566 3594 3628 3634 3633 3509 3526 3521 3509 3543 3546 3677 3565 3659 3644 3659 3698 3673 3725 3686 3688 3706 3657 3776 3768 3707 3725 3764 3673 3812 3724 3794 3803 3631 3719 3786 3669 3801 3662 3659 3735 3567 3897 3761 3713 3710 3744 3731 3821 3884 3767 3726 3832 3653 3733 3805 3722 3762 3802 3841 3659 3752 3740 3812 3747 3643 3737 3625 3736 3670 3717 3886 3878 3728 3825 3869 3742 3631 3787 3823 3749 3757 3691 3782 3730 3716 3736 3668 3844 3708 3718 3740 3826 3717 3668 3803 3841 3727 3792 3808 3810 3762 3779 3812 3740 3776 3785 3777 3845 3822 3755 3794 3847 3747 3836 3708 3785 3627 3838 3791 3814 3831 3803 3798 3745 3765 3722 3790 3836 3781 3712 3774 3756 3673 3783 3828 3812 3627 3900 3671 3770 3743 3843 3778 3840 3868 3695 3677 3682 3700 3803 3659 3786 3767 3803 3714 3708 3802 3667 3817 3681 3636 3738 3663 3695 3821 3571 3812 3714 3783 3640 3714 3796 3735 3583 3707 3748 3842 3702 3712 3651 3703 3741 3664 3696 3774 3648 3822 3608 3591 3633 3768 3606 3670 3608 3744 3724 3774 3630 3764 3646 3684 3711 3648 3679 3707 3728 3695 3562 3668 3678 3640 3658 3788 3611 3747 3728 3724 3657 3741 3679 3626 3688 3661 3643 3633 3628 3660 3731 3630 3649 3686 3699 3662 3794 3688 3699 3732 3681 3678 3697 3651 3750 3657 3675 3754 3763 3627 3670 3723 3697 3747 3745 3743 3759 3808 3720 3777 3734 3753 3796 3725 3716 3712 3866 3788 3688 3765 3785 3890 3713 3784 3818 3827 3868 3820 3842 3768 3808 3740 3872 3992 3922 3994 3795 3713 3745 3937 3824 3929 3910 3898 3905 3834 3798 3894 3987 3918 3956 3987 4010 4023 4003 3913 3979 4106 3852 3949 3984 3937 4090 3898 4004 4005 3956 4084 4034 4007 4023 3967 4075 4058 4010 4060 4039 4039 4088 4053 4083 4037 4105 4069 4096 3990 4184 4117 3970 4206 4113 4136 3963 4194 4073 4111 4144 4081 4199 4276 4193 4153 4302 4282 4179 4158 4330 4206 4307 4364 4383 4309 4156 4328 4412 4426 4455 4418 4456 4537 4453 4478 4622 4531 4615 4703 4772 4779 4744 4786 4841 4904 5003 4977 5143 5133 5366 5264 5440 5476 5525 5488 5620 5501 5727 5743 5593 5541 5627 5365 5273 5275 5124 4997 4823 4716 4596 4560 4461 4355 4431 4501 4246 4338 4263 4392 4260 4382 4262 4253 4324 4301 4262 4242 4208 4455 4276 4309 4259 4118 4225 4211 4145 4198 4127 4190 4069 4109 4032 3969 3946 3972 3931 3946 3890 3995 3957 3853 3854 3982 3861 3789 3765 3880 3703 3893 3822 3828 3945 3906 3783 3847 3723 3888 3873 3798 3764 3790 3915 3722 3885 3898 3763 3851 3777 3714 3796 3774 3731 3685 3689 3724 3716 3796 3758 3664 3776 3744 3731 3677 3827 3763 3708 3621 3689 3578 3677 3530 3684 3668 3661 3613 3622 3613 3738 3547 3565 3616 3594 3509 3611 3489 3655 3619 3565 3597 3545 3576 3580 3577 3605 3553 3559 3607 3518 3638 3616 3524 3556 3656 3434 3485 3535 3538 3471 3517 3477 3571 3423 3508 3525 3535 3441 3516 3496 3514 3475 3640 3572 3510 3584 3507 3579 3578 3540 3450 3513 3492 3516 3471 3493 3443 3571 3485 3491 3493 3461 3554 3597 3507 3532 3518 3522 3567 3448 3485 3444 3453 3519 3488 3341 3534 3366 3503 3414 3502 3432 3479 3498 3492 3453 3443 3520 3481 3411 3517 3400 3499 3516 3426 3475 3475 3455 3362 3476 3388 3482 3465 3411 3390 3482 3546 3441 3473 3426 3425 3489 3487 3412 3403 3395 3427 3425 3482 3375 3367 3267 3479 3310 3472 3363 3368 3386 3418 3403 3331 3417 3432 3429 3428 3337 3366 3508 3471 3271 3313 3449 3321 3314 3318 3451 3475 3349 3464 3347 3255 3305 3365 3387 3317 3411 3389 3363 3362 3347 3347 3379 3326 3313 3395 3467 3327 3304 3411 3366 3302 3345 3463 3355 3259 3346 3492 3306 3150 3444 3309 3270 3444 3319 3368 3487 3275 3301 3391 3424 3327 3432 3294 3254 3211 3303 3280 3316 3305 3343 3332 3355 3375 3276 3229 3391 3293 3364 3365 3278 3241 3287 3272 3318 3361 3296 3338 3143 3414 3292 3334 3295 3332 3292 3258 3225 3307 3272 3207 3352 3309 3338 3325 3227 3254 3346 3299 3411 3324 3268 3316 3234 3300 3297 3247 3251 3181 3313 3296 3278 3300 3261 3294 3261 3190 3294 3228 3313 3241 3208 3236 3232 3162 3336 3196 3282 3239 3317 3354 3191 3302 3242 3249 3303 3313 3229 3211 3272 3299 3272 3204 3211 3186 3216 3360 3400 3091 3204 3201 3254 3152 3226 3260 3220 3218 3174 3254 3111 3196 3238 3251 3174 3207 3292 3107 3168 3128 3191 3328 3298 3196 3271 3314 3165 3097 3135 3188 3029 3310 3044 3188 3161 3169 3216 3100 3200 3094 3161 3238 3191 3161 3202 3146 3253 3183 3117 3218 3174 3143 3124 3102 3134 3121 2971 3055 3191 3174 3098 3067 3091 3106 3055 3097 3163 3166 3058 3134 3066 3046 3077 3154 3164 3095 3124 3144 3149 3009 3090 3216 3135 3046 3119 3073 3106 3136 3123 3097 3048 3107 3115 3142 3203 3147 3083 3073 3147 3078 3035 3080 3093 3139 3087 3010 3045 3113 3106 3021 3048 3168 3192 3131 3112 3101 3092 3161 3025 3063 3125 3009 3180 3046 3041 3061 3137 3095 3032 3022 3100 3052 3035 3120 3135 3182 3120 3057 3119 3017 3048 3091 3137 3052 3123 2985 3064 2909 3018 3003 3027 3094 3096 3177 3009 3109 3109 3073 3148 3112 3159 3078 3119 3082 3048 3044 3067 3079 3014 3176 3086 3130 3107 3125 3071 3113 3073 3003 3116 3087 2990 3199 3117 3082 3126 3108 3048 3082 3083 3104 3142 3065 3157 3190 3142 3024 3013 3129 3065 3179 3075 3206 2977 3047 3100 3051 3089 3097 2983 3138 3112 3017 3065 3111 3055 3141 3174 3129 3049 3063 3073 3031 3047 3133 3058 3016 3189 3046 3104 3086 3100 3093 3058 3061 2947 3087 3120 3171 3046 3182 3113 3149 3084 3016 3103 3089 3091 2970 3066 2935 3072 2984 3073 3136 3133 3039 3137 3119 3071 3103 3064 3058 3118 2914 2988 2998 3036 3078 3059 3043 3080 2916 2958 2941 3058 2875 2934 3027 2884 3017 3058 3090 3050 2925 3044 2972 2975 3038 2925 2972 2970 3019 2950 2867 2949 3058 3014 2939 3002 3020 2895 2951 2910 2922 2952 3004 2887 2887 3057 2861 2843 2815 3020 2853 2903 2880 2904 2794 2866 2812 2836 2950 2917 2928 2839 2985 2855 2891 2845 2825 2856 2918 2872 2908 2774 2758 2858 2795 2809 2808 2711 2643 2732 2791 2789 2726 2718 2794 2718 2720 2701 2703 2758 2706 2738 2765 2692 2829 2727 2693 2758 2777 2746 2801 2709 2637 2665 2701 2672 2686 2725 2733 2602 2648 2687 2548 2696 2669 2637 2637 2617 2608 2739 2593 2714 2582 2596 2614 2667 2538 2617 2615 2669 2614 2661 2683 2561 2548 2575 2544 2591 2601 2645 2656 2612 2546 2575 2542 2511 2535 2555 2584 2638 2564 2557 2515 2556 2520 2560 2528 2596 2466 2525 2498 2488 2541 2557 2513 2474 2581 2495 2530 2622 2552 2599 2601 2573 2431 2457 2528 2487 2413 2430 2532 2582 2474 2491 2471 2560 2572 2527 2582 2539 2467 2431 2600 2575 2531 2511 2520 2516 2479 2431 2532 2508 2567 2537 2443 2553 2477 2559 2389 2467 2497 2450 2484 2452 2418 2423 2551 2549 2501 2513 2490 2548 2461 2540 2491 2476 2548 2386 2415 2415 2437 2475 2453 2477 2418 2455 2400 2489 2462 2383 2389 2497 2487 2415 2501 2585 2459 2453 2412 2426 2498 2372 2447 2450 2516 2543 2476 2481 2423 2406 2413 2487 2401 2542 2314 2377 2355 2399 2399 2401 2538 2395 2461 2471 2440 2476 2446 2454 2458 2468 2465 2397 2441 2489 2306 2496 2396 2493 2433 2364 2407 2374 2415 2495 2496 2466 2491 2521 2563 2365 2494 2458 2480 2335 2391 2550 2456 2379 2426 2490 2461 2449 2414 2500 2427 2470 2444 2456 2478 2480 2425 2452 2434 2456 2424 2501 2462 2526 2467 2484 2433 2417 2519 2527 2385 2457 2491 2520 2517 2477 2476 2511 2415 2396 2576 2490 2372 2300 2515 2469 2495 2427 2592 2425 2454 2427 2457 2501 2419 2468 2478 2465 2518 2431 2475 2484 2438 2508 2448 2432 2503 2483 2432 2470 2470 2473 2438 2457 2466 2478 2452 2377 2474 2449 2405 2371 2377 2490 2404 2426 2483 2361 2371 2416 2471 2463 2439 2436 2376 2439 2415 2492 2434 2414 2328 2451 2435 2352 2341 2458 2336 2400 2420 2423 2365 2410 2385 2394 2442 2445 2356 2328 2495 2445 2440 2421 2369 2294 2402 2343 2397 2356 2383 2303 2432 2363 2413 2359 2259 2328 2237 2330 2301 2303 2373 2261 2293 2332 2405 2333 2372 2315 2264 2392 2269 2220 2308 2221 2266 2246 2218 2395 2325 2300 2294 2352 2272 2241 2244 2288 2257 2251 2291 2287 2203 2268 2243 2184 2347 2246 2276 2211 2266 2258 2325 2284 2319 2290 2156 2220 2198 2304 2190 2305 2224 2278 2266 2192 2276 2131 2170 2332 2157 2241 2226 2198 2205 2265 2192 2226 2207 2204 2201 2276 2208 2224 2225 2166 2200 2145 2098 2153 2270 2132 2269 2179 2129 2159 2042 2164 2098 2161 2239 2093 2205 2091 2188 2190 2133 2189 2199 2160 2240 2086 2088 2225 2201 2130 2141 2167 2196 2112 2160 2180 2088 2142 2103 2107 2231 2126 2249 2182 2124 2263 2211 2219 2186 2221 2142 2170 2298 2276 2215 2247 2307 2279 2304 2352 2366 2322 2221 2303 2283 2378 2330 2412 2296 2399 2398 2482 2555 2522 2624 2581 2608 2720 2837 2721 2718 2751 2942 2911 3015 2916 2989 2933 2962 2845 2904 2820 2753 2743 2758 2641 2685 2553 2341 2438 2340 2324 2319 2332 2285 2233 2228 2204 2270 2078 2125 2118 2160 2129 2235 2252 2135 2170 2198 2116 2108 2127 2086 2132 2186 2087 2106 2266 2121 2107 2190 2123 2186 2134 2184 2067 2085 2043 2167 2141 2195 2028 2196 2055 2024 2165 1985 2052 2112 2096 2083 2063 2093 2084 2077 2010 2058 2040 2147 2139 2023 2077 2111 2138 2076 2092 2070 2099 2145 2207 2158 2238 2263 2206 2234 2325 2313 2342 2307 2354 2327 2328 2447 2489 2403 2527 2377 2573 2605 2706 2724 2829 2911 2952 3087 3243 3134 3446 3451 3522 3586 3635 3733 3707 3626 3791 3648 3695 3666 3585 3535 3373 3398 3207 3149 3038 2927 2927 2879 2805 2681 2671 2557 2643 2531 2377 2454 2348 2443 2347 2354 2278 2262 2344 2334 2204 2281 2183 2145 2244 2244 2201 2193 2261 2280 2264 2162 2196 2225 2192 2237 2221 2267 2333 2193 2266 2350 2340 2251 2286 2245 2296 2330 2223 2349 2250 2236 2302 2291 2322 2328 2314 2371 2278 2339 2310 2364 2178 2319 2292 2253 2247 2260 2264 2230 2229 2219 2160 2267 2173 2172 2270 2198 2191 2218 2151 2099 2154 2096 2139 2043 2096 2138 2093 2032 2072 2088 2075 1999 2100 2027 2037 1967 1992 2000 1994 2034 1955 2098 1977 2039 2032 1989 2101 2035 1987 1967 1983 1913 1805 1961 1854 1947 1954 1997 1932 1996 1881 1903 1909 1821 1884 1892 1880 1889 1879 1851 1949 1909 1906 2004 1922 1901 1891 1929 1892 1869 1878 1816 1914 1833 1856 1803 1907 1823 1851 1839 1948 1839 1870 1869 1862 1796 1836 1915 1841 1881 1872 1842 1893 1817 1886 1937 1834 1922 1830 1920 1840 1937 1834 1834 1865 1783 1898 1836 1837 1827 1902 1875 1846 1830 1892 1856 1766 1905 1879 1815 1824 1820 1861 1816 1902 1833 1816 1889 1818 1821 1795 1892 1868 1861 1816 1786 1832 1897 1831 1827 1909 1893 1866 1858 1848 1826 1849 1792 1847 1875 1818 1923 1806 1844 1933 1837 1918 1864 1840 1814 1872 1859 1934 1854 1876 1807 1852 1881 1955 1838 1881 1851 1903 1869 1867 1899 1837 1903 1794 1900 1858 1868 1790 1902 1935 1842 1791 1852 1860 1815 1882 1825 1861 1807 1902 1929 1779 1990 1814 1931 1876 1839 1793 1865 1810 1836 1820 1774 1822 1784 1847 1861 1828 1866 1907 1826 1858 1807 1777 1857 1836 1839 1861 1869 1923 1818 1743 1849 1817 1829 1866 1791 1802 1862 1885 1887 1834 1811 1863 1868 1858 1820 1922 1813 1887 1938 1826 1786 1890 1818 1842 1815 1845 1802 1888 1855 1847 1861 1760 1847 1838 1869 1849 1925 1838 1874 1833 1868 1813 1887 1826 1890 1897 1808 1889 1830 1808 1844 1856 1857 1832 1888 1890 1748 1824 1850 1871 1760 1915 1804 1799 1888 1962 1828 1843 1854 1851 1869 1949 1834 1931 1934 1946 1911 2003 1999 1927 2058 2025 2045 2137 2133 2092 2227 2327 2371 2331 2351 2484 2507 2752 2837 2875 2875 2982 3072 3139 3231 3194 3267 3344 3391 3532 3562 3695 3765 4062 4108 4395 4424 4577 4828 4962 5231 5400 5826 5866 6190 6435 6956 7167 7373 7543 7657 7632 7568 7652 7594 7501 7415 7276 6910 6836 6517 6272 5989 5473 5257 4964 4624 4210 4155 4051 3764 3582 3478 3412 3283 3236 3063 2902 2828 2808 2724 2695 2531 2635 2366 2404 2333 2347 2249 2324 2135 2219 2201 2214 2135 2088 2143 2215 2088 2142 2085 2137 2106 2118 2141 2143 2202 2114 2125 2222 2127 2246 2156 2256 2124 2217 2182 2149 2205 2180 2203 2184 2156 2093 2215 2124 2153 2122 2032 2112 2047 1984 2019 1953 1968 1970 1988 1948 1994 1949 2017 1921 2017 1956 1934 1972 1916 1987 1934 1883 1962 1915 1857 1945 1935 1910 1772 1948 1996 1837 1839 1871 1820 1923 1813 1854 1826 1835 1835 1864 1765 1828 1873 1837 1799 1842 1831 1850 1865 1860 1765 1767 1755 1765 1806 1737 1846 1781 1764 1873 1839 1825 1884 1773 1775 1850 1858 1728 1817 1769 1791 1816 1845 1771 1734 1795 1833 1841 1714 1813 1743 1816 1847 1767 1767 1746 1748 1805 1737 1733 1855 1820 1862 1822 1726 1811 1792 1730 1764 1689 1776 1800 1772 1710 1719 1844 1718 1726 1774 1765 1729 1816 1699 1786 1750 1812 1663 1779 1773 1751 1757 1755 1734 1747 1791 1743 1713 1797 1736 1778 1756 1745 1750 1706 1788 1817 1838 1720 1817 1673 1779 1740 1826 1643 1788 1688 1785 1748 1716 1711 1734 1760 1747 1679 1752 1803 1705 1650 1723 1751 1796 1719 1752 1705 1803 1748 1769 1744 1737 1703 1804 1732 1754 1677 1703 1766 1754 1689 1726 1703 1777 1797 1666 1699 1739 1763 1770 1801 1745 1727 1762 1753 1779 1776 1766 1776 1778 1730 1743 1746 1824 1735 1728 1734 1781 1710 1792 1799 1817 1751 1765 1749 1814 1768 1857 1831 1795 1790 1861 1786 1874 1809 1785 1851 1844 1779 1848 1777 1777 1769 1770 1837 1799 1781 1761 1770 1693 1808 1798 1747 1716 1745 1772 1771 1709 1829 1734 1744 1708 1745 1772 1832 1697 1716 1758 1754 1713 1741 1703 1675 1678 1728 1701 1634 1711 1685 1733 1750 1673 1813 1737 1762 1771 1742 1758 1750 1735 1718 1695 1688 1781 1743 1725 1721 1768 1702 1759 1625 1695 1744 1723 1701 1683 1663 1745 1730 1713 1750 1683 1697 1660 1701 1784 1727 1682 1764 1774 1735 1707 1683 1694 1746 1626 1731 1682 1689 1739 1706 1742 1681 1736 1776 1761 1654 1667 1664 1725 1750 1696 1654 1703 1742 1719 1761 1667 1757 1704 1745 1774 1678 1682 1706 1756 1678 1616 1695 1654 1706 1630 1727 1657 1734 1692 1717 1631 1736 1772 1750 1712 1707 1732 1707 1673 1736 1717 1582 1685 1665 1690 1681 1662 1627 1732 1718 1674 1671 1690 1772 1720 1671 1627 1699 1690 1722 1630 1664 1709 1709 1687 1635 1648 1719 1640 1643 1672 1651 1663 1711 1666 1647 1703 1730 1654 1686 1614 1666 1657 1617 1666 1674 1718 1688 1635 1644 1661 1744 1643 1646 1598 1660 1662 1631 1661 1722 1732 1640 1696 1748 1784 1638 1738 1651 1702 1655 1645 1681 1674 1767 1626 1661 1662 1603 1755 1703 1676 1598 1727 1657 1707 1679 1736 1700 1706 1728 1708 1743 1650 1706 1617 1650 1697 1735 1616 1685 1740 1677 1708 1716 1715 1595 1642 1692 1722 1635 1792 1690 1658 1598 1668 1722 1676 1692 1789 1653 1635 1689 1729 1564 1722 1674 1730 1708 1681 1668 1694 1714 1741 1686 1693 1704 1746 1623 1697 1722 1640 1694 1702 1765 1643 1729 1758 1675 1618 1698 1621 1689 1623 1703 1651 1706 1693 1729 1762 1697 1656 1707 1680 1647 1725 1736 1663 1663 1707 1711 1685 1668 1752 1722 1724 1715 1683 1626 1712 1744 1671 1719 1714 1627 1673 1677 1648 1700 1655 1674 1692 1668 1660 1660 1675 1680 1670 1730 1758 1740 1649 1697 1705 1646 1612 1646 1690 1666 1683 1639 1729 1591 1678 1597 1687 1677 1664 1630 1705 1654 1682 1641 1593 1685 1629 1642 1742 1631 1672 1598 1699 1664 1684 1627 1654 1652 1704 1686 1639 1630 1690 1681 1659 1629 1665 1683 1648 1710 1711 1667 1643 1703 1657 1711 1668 1667 1694 1670 1663 1680 1692 1628 1707 1710 1667 1673 1742 1791 1649 1718 1717 1678 1754 1655 1691 1670 1710 1744 1668 1671 1680 1637 1674 1676 1705 1658 1662 1716 1640 1616 1621 1647 1670 1660 1771 1662 1670 1671 1690 1695 1671 1712 1731 1667 1624 1695 1619 1673 1683 1694 1559 1688 1773 1584 1743 1669 1633 1664 1589 1760 1670 1740 1634 1665 1641 1697 1743 1638 1668 1734 1720 1692 1770 1734 1732 1707 1665 1631 1662 1667 1660 1685 1701 1680 1677 1625 1627 1708 1739 1664 1736 1674 1687 1631 1701 1688 1690 1727 1650 1666 1658 1698 1739 1730 1644 1666 1706 1653 1661 1663 1740 1668 1696 1630 1688 1654 1648 1693 1632 1698 1620 1735 1629 1629 1661 1635 1708 1714 1736 1716 1698 1659 1699 1632 1640 1615 1651 1723 1611 1654 1611 1660 1729 1670 1680 1725 1733 1734 1669 1691 1688 1625 1654 1712 1719 1760 1686 1676 1571 1657 1732 1711 1654 1711 1720 1677 1764 1668 1578 1704 1702 1790 1732 1715 1687 1669 1697 1696 1637 1651 1596 1715 1724 1699 1651 1688 1655 1665 1700 1656 1683 1693 1701 1656 1675 1670 1666 1784 1683 1684 1661 1682 1736 1667 1676 1640 1712 1663 1671 1749 1714 1713 1663 1623 1714 1678 1698 1717 1648 1678 1759 1743 1670 1691 1690 1616 1643 1665 1680 1616 1719 1716 1744 1714 1627 1769 1613 1719 1697 1639 1733 1728 1669 1746 1656 1708 1693 1686 1784 1675 1682 1678 1671 1770 1809 1726 1739 1749 1681 1711 1671 1778 1753 1780 1761 1756 1805 1718 1772 1773 1874 1802 1851 1866 1861 1944 1961 1899 1968 2008 1905 2008 1987 2034 2256 2141 2256 2154 2180 2316 2299 2309 2229 2385 2295 2332 2255 2312 2316 2305 2278 2291 2177 2239 2133 2232 2117 2130 2033 2024 1994 1983 1925 1972 1968 1874 1845 1867 1960 1784 1853 1763 1808 1807 1799 1734 1814 1713 1719 1786 1718 1739 1761 1712 1789 1725 1700 1678 1679 1686 1663 1712 1676 1653 1583 1736 1686 1687 1750 1737 1742 1734 1728 1682 1709 1651 1696 1697 1698 1700 1670 1658 1689 1755 1694 1675 1672 1640 1699 1688 1741 1693 1741 1618 1657 1678 1668 1682 1728 1703 1678 1655 1673 1695 1676 1700 1713 1669 1768 1704 1700 1722 1744 1742 1731 1682 1757 1626 1716 1703 1660 1696 1664 1669 1683 1674 1700 1617 1707 1679 1660 1666 1657 1678 1767 1708 1685 1686 1669 1636 1678 1629 1711 1676 1698 1653 1639 1648 1673 1641 1612 1668 1676 1711 1671 1661 1709 1702 1708 1675 1660 1618 1636 1672 1715 1724 1707 1663 1647 1732 1633 1716 1580 1682 1648 1673 1655 1722 1652 1649 1679 1641 1667 1600 1667 1701 1633 1641 1638 1612 1668 1645 1721 1595 1609 1648 1647 1645 1673 1709 1695 1658 1665 1659 1673 1659 1692 1691 1639 1660 1589 1685 1684 1654 1687 1670 1677 1630 1653 1634 1690 1639 1669 1751 1709 1633 1771 1647 1751 1624 1689 1681 1678 1720 1608 1650 1620 1662 1711 1661 1650 1641 1553 1789 1681 1627 1650 1665 1683 1648 1713 1634 1668 1622 1688 1701 1672 1734 1698 1680 1724 1689 1684 1721 1740 1671 1668 1640 1653 1699 1688 1679 1640 1597 1657 1718 1653 1700 1691 1707 1673 1667 1679 1656 1719 1693 1629 1647 1698 1699 1654 1685 1702 1737 1726 1703 1588 1614 1582 1736 1647 1665 1643 1684 1741 1687 1652 1660 1695 1739 1659 1734 1747 1639 1707 1653 1659 1740 1664 1670 1629 1746 1675 1752 1675 1701 1750 1693 1690 1716 1672 1664 1678 1687 1673 1757 1732 1653 1736 1722 1668 1767 1772 1812 1724 1718 1750 1741 1734 1712 1768 1771 1698 1673 1734 1726 1676 1740 1835 1741 1808 1772 1835 1775 1816 1738 1821 1824 1845 1914 1924 1974 1901 2005 2028 2030 2055 2080 2089 2186 2270 2208 2222 2272 2434 2344 2541 2563 2698 2614 2790 2814 2928 2924 3116 3244 3316 3482 3618 3736 4001 3970 4155 4271 4348 4394 4446 4411 4559 4359 4530 4450 4525 4530 4328 4513 4321 4231 4175 4100 3804 3789 3809 3674 3480 3320 3310 3144 2925 2949 2930 2818 2781 2703 2654 2603 2498 2466 2428 2424 2378 2312 2273 2363 2221 2214 2212 2231 2210 2100 2044 2078 2073 2057 1985 1997 1902 1980 2008 1916 1973 1964 1962 1936 1922 1864 1923 1848 1844 1803 1820 1841 1881 1886 1843 1919 1842 1943 1895 1854 1819 1863 1951 1893 1855 1898 1921 1876 1892 1921 1969 2005 1945 1975 1981 1956 1996 1944 2020 1888 1964 1903 1950 1813 1971 1965 1856 1976 1927 1995 1957 2002 1902 2014 1883 1904 1930 1913 1964 2019 1835 1859 1907 1954 1875 1842 1886 1869 1885 1867 1925 1886 1830 1912 1834 1864 1810 1759 1849 1817 1834 1908 1785 1830 1877 1824 1863 1791 1808 1821 1851 1768 1811 1821 1824 1748 1860 1828 1817 1784 1796 1762 1744 1807 1761 1754 1830 1818 1754 1768 1670 1704 1736 1708 1803 1815 1692 1848 1734 1673 1778 1789 1751 1740 1704 1683 1754 1706 1736 1720 1651 1670 1773 1694 1750 1768 1732 1743 1715 1681 1775 1695 1736 1757 1748 1728 1801 1742 1772 1767 1785 1782 1811 1819 1919 1826 1838 1841 1819 1874 1913 1921 1930 1900 1892 1927 1999 1975 1983 1973 1978 1926 2041 1930 2048 2060 2016 1988 2018 1962 1975 2023 1994 1941 1904 2014 1894 1886 1835 1898 1871 1835 1883 1770 1748 1860 1851 1756 1720 1782 1794 1764 1763 1690 1805 1803 1735 1792 1724 1797 1643 1735 1709 1689 1760 1748 1756 1785 1684 1700 1735 1677 1728 1657 1695 1579 1689 1756 1694 1626 1721 1712 1744 1730 1714 1680 1688 1696 1603 1674 1701 1640 1682 1731 1698 1692 1629 1690 1737 1652 1659 1791 1691 1697 1768 1660 1757 1717 1685 1789 1690 1776 1684 1712 1790 1740 1667 1742 1712 1732 1794 1685 1660 1795 1711 1686 1650 1654 1693 1688 1707 1668 1650 1767 1669 1616 1715 1656 1614 1692 1634 1603 1696 1556 1689 1616 1638 1705 1631 1646 1654 1665 1720 1624 1698 1616 1614 1677 1599 1661 1639 1683 1654 1684 1660 1681 1598 1577 1618 1660 1594 1708 1575 1612 1651 1679 1615 1667 1623 1674 1725 1580 1678 1694 1662 1627 1595 1638 1623 1694 1617 1698 1626 1634 1638 1706 1649 1677 1674 1652 1615 1587 1682 1670 1611 1621 1659 1665 1606 1623 1620 1599 1637 1673 1710 1621 1692 1631 1668 1628 1561 1643 1598 1620 1740 1642 1654 1645 1688 1590 1664 1582 1603 1690 1601 1691 1626 1657 1646 1677 1615 1674 1591 1598 1607 1638 1703 1604 1645 1635 1664 1592 1569 1568 1576 1658 1666 1689 1648 1660 1645 1650 1627 1675 1556 1541 1577 1645 1615 1651 1635 1577 1548 1644 1689 1699 1569 1630 1644 1640 1623 1666 1612 1657 1541 1672 1587 1619 1584 1640 1700 1604 1684 1538 1644 1618 1636 1603 1572 1648 1591 1651 1602 1583 1631 1560 1608 1643 1625 1633 1608 1724 1656 1724 1670 1625 1651 1631 1656 1658 1659 1590 1682 1655 1664 1620 1650 1680 1672 1625 1596 1603 1623 1590 1627 1614 1610 1605 1640 1635 1585 1597 1502 1637 1645 1630 1536 1618 1553 1640 1596 1615 1633 1661 1625 1613 1677 1603 1688 1621 1655 1655 1634 1571 1627 1643 1603 1706 1566 1727 1664 1590 1655 1682 1649 1555 1638 1598 1675 1547 1633 1598 1708 1667 1612 1634 1629 1650 1677 1563 1690 1568 1632 1601 1701 1685 1662 1641 1656 1670 1580 1580 1574 1716 1606 1684 1671 1635 1577 1645 1641 1619 1587 1651 1629 1622 1632 1608 1627 1649 1633 1643 1696 1641 1625 1564 1610 1607 1602 1607 1657 1572 1664 1661 1708 1635 1629 1750 1674 1585 1536 1585 1662 1575 1589 1631 1653 1635 1579 1605 1635 1709 1640 1651 1664 1637 1628 1554 1628 1620 1651 1654 1557 1597 1565 1674 1661 1624 1732 1667 1720 1633 1623 1648 1589 1646 1680 1597 1675 1602 1617 1672 1615 1598 1599 1654 1565 1635 1602 1714 1615 1624 1662 1590 1678 1628 1683 1644 1633 1662 1572 1646 1625 1641 1693 1618 1586 1619 1633 1630 1678 1589 1683 1709 1625 1616 1719 1652 1667 1604 1565 1612 1560 1690 1582 1688 1631 1608 1624 1616 1631 1672 1639 1642 1657 1571 1617 1515 1677 1610 1571 1617 1689 1551 1635 1692 1634 1579 1653 1633 1618 1614 1653 1675 1683 1647 1682 1648 1647 1684 1618 1555 1660 1570 1695 1615 1629 1645 1650 1620 1654 1636 1700 1691 1657 1622 1690 1639 1683 1659 1683 1673 1717 1680 1622 1656 1714 1701 1654 1675 1661 1712 1769 1745 1726 1815 1735 1713 1726 1742 1740 1763 1726 1712 1625 1704 1648 1657 1703 1686 1614 1698 1685 1638 1699 1602 1691 1692 1625 1636 1609 1645 1665 1639 1672 1723 1642 1735 1705 1684 1673 1722 1692 1723 1752 1775 1720 1802 1743 1787 1850 1747 1761 1793 1786 1853 1895 1844 1918 1990 1872 1828 1976 1899 1856 1966 1875 2000 1901 1937 1939 1989 1935 1980 1907 1878 1965 1965 1901 1809 1962 1871 1900 1885 1781 1805 1757 1823 1823 1791 1822 1781 1774 1759 1822 1697 1889 1746 1767 1828 1829 1808 1831 1778 1735 1845 1798 1782 1799 1827 1747 1729 1793 1814 1770 1791 1817 1713 1773 1800 1680 1737 1697 1684 1738 1739 1695 1678 1693 1750 1693 1713 1670 1718 1720 1659 1712 1654 1661 1684 1703 1647 1636 1634 1672 1716 1719 1718 1642 1660 1614 1661 1631 1643 1756 1673 1676 1685 1689 1624 1630 1714 1654 1631 1681 1699 1690 1693 1677 1665 1604 1743 1711 1675 1602 1702 1661 1786 1725 1654 1679 1689 1638 1710 1722 1616 1713 1829 1667 1701 1718 1718 1744 1693 1651 1725 1627 1724 1733 1729 1674 1622 1667 1694 1709 1705 1740 1768 1772 1736 1744 1690 1804 1778 1680 1756 1743 1742 1702 1671 1766 1761 1804 1799 1716 1732 1730 1619 1784 1803 1772 1760 1803 1817 1720 1742 1724 1766 1681 1785 1712 1670 1736 1738 1696 1669 1730 1652 1719 1716 1700 1724 1709 1744 1681 1688 1699 1748 1717 1733 1748 1732 1708 1708 1700 1690 1639 1712 1656 1632 1686 1724 1681 1724 1690 1750 1592 1706 1639 1624 1726 1718 1713 1752 1662 1705 1624 1704 1690 1674 1809 1704 1696 1681 1706 1637 1774 1694 1733 1690 1756 1723 1786 1655 1680 1762 1788 1723 1745 1730 1815 1738 1777 1819 1887 1863 1920 1884 2028 1940 1983 1982 2042 2076 2248 2119 2240 2256 2262 2234 2236 2352 2172 2274 2238 2270 2313 2231 2215 2178 2294 2238 2271 2205 2283 2246 2203 2279 2190 2107 2079 2147 2028 2000 1979 1908 2001 1871 1977 1940 1883 1869 1964 1940 1894 1912 1881 1866 1774 1841 1849 1793 1888 1680 1843 1782 1777 1750 1785 1783 1622 1771 1710 1775 1764 1682 1719 1791 1684 1710 1751 1706 1638 1752 1711 1643 1696 1655 1701 1703 1698 1706 1659 1660 1712 1718 1654 1646 1675 1681 1696 1679 1709 1636 1600 1675 1636 1666 1653 1656 1715 1635 1663 1666 1604 1587 1662 1607 1681 1707 1677 1690 1593 1681 1714 1672 1681 1700 1641 1689 1652 1668 1636 1705 1589 1725 1626 1729 1721 1697 1647 1759 1707 1748 1645 1676 1699 1678 1625 1667 1780 1711 1622 1687 1747 1759 1688 1697 1671 1644 1690 1639 1618 1615 1672 1689 1651 1684 1766 1570 1692 1671 1729 1686 1686 1717 1614 1658 1697 1675 1640 1650 1668 1672 1677 1630 1651 1664 1729 1611 1686 1634 1675 1714 1723 1632 1695 1682 1701 1774 1715 1701 1736 1748 1667 1762 1678 1773 1857 1844 1774 1829 1775 1752 1734 1898 1804 1770 1825 1749 1830 1795 1782 1902 1790 1855 1756 1784 1826 1721 1780 1781 1871 1841 1745 1767 1796 1776 1760 1790 1743 1806 1746 1677 1746 1685 1687 1741 1732 1736 1713 1653 1680 1629 1649 1703 1733 1648 1646 1706 1613 1679 1758 1641 1646 1611 1667 1626 1649 1656 1665 1601 1640 1637 1645 1555 1588 1645 1698 1654 1646 1640 1623 1608 1635 1604 1551 1562 1653 1717 1643 1603 1663 1578 1623 1642 1644 1605 1650 1607 1636 1586 1683 1562 1606 1655 1619 1622 1558 1660 1664 1623 1604 1621 1565 1633 1501 1651 1581 1633 1611 1617 1621 1571 1640 1625 1688 1727 1595 1605 1565 1591 1614 1603 1606 1591 1553 1723 1691 1587 1668 1625 1646 1645 1605 1584 1656 1650 1638 1639 1678 1584 1599 1579 1611 1559 1597 1586 1631 1587 1598 1599 1676 1634 1712 1648 1598 1674 1606 1613 1582 1642 1598 1523 1611 1581 1653 1631 1625 1565 1604 1611 1572 1569 1628 1643 1522 1649 1582 1596 1573 1597 1619 1590 1627 1633 1555 1685 1616 1648 1657 1612 1613 1594 1698 1654 1664 1632 1619 1611 1556 1573 1658 1561 1632 1606 1550 1654 1636 1618 1591 1592 1594 1624 1604 1678 1654 1639 1541 1587 1613 1595 1612 1537 1658 1575 1672 1570 1629 1615 1626 1647 1632 1572 1568 1641 1669 1502 1641 1612 1630 1628 1615 1568 1607 1623 1597 1508 1595 1601 1601 1572 1610 1604 1646 1594 1537 1652 1621 1616 1554 1562 1593 1559 1516 1622 1677 1628 1593 1584 1587 1661 1625 1592 1557 1562 1576 1481 1666 1574 1713 1601 1602 1604 1585 1553 1527 1610 1619 1557 1585 1585 1547 1641 1634 1523 1627 1548 1640 1661 1557 1554 1675 1644 1589 1575 1558 1603 1587 1574 1620 1547 1692 1606 1567 1615 1583 1661 1611 1525 1577 1541 1636 1579 1575 1585 1549 1611 1629 1560 1630 1533 1651 1607 1607 1666 1566 1630 1589 1564 1612 1603 1570 1579 1642 1642 1598 1544 1654 1597 1577 1645 1583 1627 1599 1651 1601 1561 1508 1630 1608 1598 1655 1604 1649 1550 1647 1615 1607 1572 1644 1598 1620 1645 1577 1610 1560 1688 1624 1530 1578 1581 1645 1645 1646 1616 1606 1563 1628 1570 1608 1611 1614 1579 1634 1627 1585 1592 1572 1519 1629 1610 1571 1655 1696 1607 1604 1577 1631 1631 1632 1672 1631 1533 1652 1602 1666 1562 1600 1589 1569 1573 1586 1576 1698 1613 1592 1625 1610 1588 1598 1647 1643 1638 1615 1607 1629 1613 1532 1643 1599 1590 1551 1613 1547 1627 1557 1599 1568 1634 1604 1634 1600 1621 1636 1627 1625 1594 1523 1541 1596 1581 1600 1590 1672 1610 1545 1590 1591 1602 1641 1665 1615 1611 1620 1589 1625 1647 1557 1672 1653 1628 1596 1596 1597 1637 1674 1678 1592 1543 1666 1602 1558 1580 1582 1632 1565 1698 1703 1701 1694 1607 1572 1650 1649 1633 1667 1687 1688 1675 1697 1641 1656 1739 1660 1673 1695 1682 1660 1623 1595 1691 1793 1714 1690 1709 1666 1651 1689 1678 1756 1692 1737 1664 1657 1703 1767 1620 1638 1623 1643 1590 1662 1565 1605 1654 1584 1710 1612 1636 1644 1646 1712 1548 1648 1650 1664 1629 1580 1674 1654 1599 1654 1575 1631 1652 1684 1703 1610 1613 1671 1567 1588 1611 1573 1658 1580 1653 1616 1567 1716 1641 1618 1566 1641 1633 1652 1555 1637 1729 1552 1583 1635 1564 1574 1606 1669 1563 1632 1589 1518 1651 1572 1586 1538 1613 1563 1647 1668 1598 1604 1545 1652 1615 1607 1624 1605 1568 1607 1649 1620 1554 1607 1512 1559 1577 1679 1601 1627 1638 1533 1644 1647 1677 1606 1604 1625 1514 1556 1643 1624 1575 1610 1682 1605 1620 1657 1564 1552 1568 1590 1605 1612 1572 1624 1619 1655 1673 1566 1599 1551 1578 1658 1587 1540 1592 1649 1638 1603 1570 1642 1606 1585 1593 1636 1666 1527 1640 1607 1609 1618 1641 1561 1577 1617 1630 1662 1681 1586 1548 1571 1593 1647 1566 1570 1547 1589 1620 1659 1686 1568 1554 1521 1621 1595 1617 1624 1624 1568 1660 1654 1645 1571 1640 1567 1642 1631 1600 1631 1616 1680 1567 1598 1625 1599 1602 1609 1571 1591 1541 1649 1565 1677 1543 1567 1666 1560 1582 1579 1607 1621 1553 1651 1611 1606 1623 1650 1599 1548 1564 1595 1585 1605 1612 1547 1605 1656 1565 1601 1604 1629 1587 1538 1604 1618 1637 1635 1684 1621 1626 1580 1615 1648 1585 1570 1617 1628 1607 1626 1660 1594 1666 1669 1571 1606 1638 1701 1612 1653 1670 1619 1642 1729 1601 1603 1592 1695 1727 1645 1657 1759 1736 1699 1786 1817 1816 1694 1723 1753 1800 1758 1711 1824 1866 1834 1804 1885 1796 1825 1863 1852 1855 1865 1941 1916 1810 1873 1815 1833 1893 1841 1901 1859 1898 1858 1902 1857 1864 1889 1867 1889 1751 1826 1810 1825 1811 1762 1661 1711 1810 1659 1725 1698 1704 1696 1742 1796 1790 1711 1724 1733 1748 1685 1696 1691 1732 1671 1738 1678 1648 1663 1579 1676 1647 1693 1693 1693 1726 1684 1616 1720 1670 1604 1670 1659 1636 1665 1675 1665 1700 1607 1659 1658 1602 1673 1625 1620 1717 1601 1653 1634 1651 1635 1610 1568 1689 1639 1669 1585 1646 1582 1586 1621 1609 1634 1593 1719 1668 1635 1580 1601 1604 1599 1580 1613 1618 1552 1665 1600 1556 1642 1634 1547 1626 1551 1607 1647 1615 1650 1642 1629 1544 1672 1634 1596 1587 1610 1647 1606 1692 1625 1601 1600 1584 1626 1566 1579 1602 1596 1665 1658 1631 1570 1625 1537 1591 1579 1567 1685 1532 1625 1646 1566 1675 1632 1593 1472 1554 1613 1613 1663 1574 1637 1558 1653 1626 1656 1575 1696 1625 1586 1653 1587 1550 1628 1659 1652 1587 1616 1616 1562 1677 1652 1614 1618 1644 1636 1674 1716 1618 1660 1719 1580 1614 1524 1643 1580 1598 1662 1594 1654 1643 1574 1631 1677 1583 1633 1553 1582 1564 1636 1646 1678 1673 1677 1675 1638 1617 1599 1624 1549 1632 1654 1642 1610 1634 1561 1663 1639 1655 1635 1618 1628 1602 1611 1655 1552 1600 1590 1654 1601 1550 1673 1558 1579 1573 1602 1677 1680 1606 1525 1513 1646 1573 1573 1621 1661 1605 1584 1608 1601 1648 1581 1568 1617 1651 1567 1675 1572 1577 1627 1609 1667 1598 1634 1583 1624 1622 1624 1537 1622 1622 1558 1619 1654 1562 1543 1602 1573 1594 1602 1566 1633 1636 1625 1671 1677 1551 1578 1573 1563 1581 1657 1607 1638 1560 1634 1606 1611 1555 1682 1626 1542 1547 1577 1550 1635 1636 1582 1622 1571 1617 1557 1637 1632 1570 1711 1539 1563 1637 1549 1671 1557 1594 1564 1640 1663 1546 1540 1654 1634 1598 1615 1622 1603 1606 1679 1595 1681 1617 1673 1587 1560 1561 1623 1602 1591 1519 1574 1650 1648 1579 1626 1606 1566 1617 1567 1596 1580 1680 1564 1535 1550 1608 1542 1586 1592 1581 1561 1616 1633 1671 1581 1580 1686 1611 1575 1616 1569 1579 1596 1611 1590 1616 1585 1548 1624 1580 1607 1569 1606 1528 1576 1618 1652 1649 1611 1658 1562 1620 1669 1582 1637 1569 1626 1687 1637 1640 1657 1675 1553 1590 1674 1649 1663 1606 1631 1581 1560 1646 1652 1572 1566 1650 1735 1585 1599 1604 1553 1633 1597 1577 1653 1555 1595 1529 1667 1602 1594 1638 1639 1627 1599 1638 1641 1637 1644 1648 1583 1591 1604 1679 1565 1681 1592 1589 1538 1667 1618 1661 1649 1632 1542 1604 1616 1639 1661 1595 1611 1578 1637 1569 1578 1610 1549 1538 1490 1638 1540 1540 1577 1642 1638 1560 1629 1651 1517 1601 1579 1534 1649 1634 1584 1673 1643 1656 1616 1583 1591 1622 1651 1595 1542 1583 1560 1591 1651 1626 1629 1665 1664 1643 1554 1569 1621 1640 1632 1585 1613 1590 1574 1643 1600 1674 1546 1581 1593 1674 1588 1622 1551 1591 1634 1639 1605 1704 1658 1615 1589 1603 1601 1634 1610 1618 1610 1573 1570 1616 1594 1660 1602 1647 1621 1723 1633 1607 1611 1603 1646 1598 1611 1554 1640 1598 1608 1603 1630 1624 1561 1527 1470 1633 1619 1622 1620 1562 1695 1627 1578 1665 1633 1591 1654 1587 1589 1614 1657 1604 1581 1668 1617 1651 1571 1645 1617 1686 1628 1611 1597 1555 1563 1692 1663 1694 1647 1590 1655 1582 1587 1578 1602 1554 1584 1660 1551 1652 1632 1579 1700 1596 1544 1553 1661 1732 1658 1686 1604 1639 1680 1624 1631 1604 1635 1660 1651 1608 1596 1631 1647 1668 1690 1675 1784 1689 1655 1670 1698 1690 1643 1628 1631 1741 1685 1612 1685 1750 1659 1650 1672 1675 1660 1660 1690 1761 1735 1641 1667 1725 1645 1684 1742 1650 1650 1631 1616 1703 1598 1666 1711 1704 1734 1604 1670 1665 1709 1674 1654 1681 1658 1650 1694 1628 1669 1742 1736 1804 1683 1728 1701 1716 1691 1644 1749 1662 1644 1716 1727 1752 1709 1775 1726 1676 1657 1576 1709 1647 1708 1658 1696 1723 1670 1784 1636 1706 1734 1709 1725 1751 1690 1733 1750 1700 1684 1655 1676 1667 1697 1737 1573 1643 1670 1628 1647 1661 1619 1730 1732 1667 1633 1628 1692 1630 1608 1565 1586 1649 1604 1693 1637 1652 1644 1612 1622 1761 1670 1592 1598 1730 1687 1626 1649 1618 1695 1656 1661 1692 1686 1701 1676 1692 1667 1625 1619 1631 1690 1650 1654 1638 1686 1658 1671 1625 1634 1625 1633 1617 1631 1658 1616 1589 1561 1593 1650 1728 1608 1670 1716 1644 1700 1628 1658 1634 1637 1663 1650 1670 1612 1610 1572 1590 1627 1625 1646 1575 1592 1611 1646 1628 1502 1638 1614 1586 1540 1615 1632 1662 1670 1581 1630 1689 1602 1645 1637 1644 1638 1638 1625 1552 1640 1685 1617 1624 1624 1645 1690 1682 1665 1687 1676 1688 1561 1693 1691 1680 1657 1630 1642 1697 1583 1730 1637 1597 1669 1675 1667 1656 1671 1557 1638 1650 1615 1602 1626 1663 1683 1618 1632 1695 1696 1651 1619 1670 1643 1708 1656 1688 1705 1664 1698 1753 1745 1674 1664 1752 1757 1738 1655 1747 1716 1746 1695 1822 1745 1820 1802 1792 1817 1763 1854 1827 1952 1863 1859 1838 1885 1899 1964 2074 2016 2061 2114 2112 2091 2106 2134 2143 2081 2135 2034 2136 2153 2081 2103 2150 2204 2122 2183 2139 2084 2077 2084 2106 2182 2104 2090 2132 2211 2106 2062 2094 2226 2048 2160 2024 2020 2080 2003 2076 2058 2051 2000 1921 1932 1972 1881 1951 1896 1952 1915 1883 1860 1897 1847 1867 1852 1816 1864 1849 1848 1859 1802 1716 1930 1739 1855 1829 1867 1757 1802 1733 1791 1790 1782 1834 1702 1762 1790 1790 1758 1731 1718 1777 1810 1796 1862 1788 1773 1740 1778 1828 1746 1702 1672 1717 1750 1787 1702 1703 1742 1783 1783 1677 1697 1800 1763 1689 1725 1722 1691 1767 1774 1751 1686 1700 1702 1731 1661 1653 1631 1761 1701 1686 1710 1622 1653 1669 1688 1666 1690 1727 1656 1660 1643 1634 1685 1647 1703 1557 1692 1657 1664 1721 1643 1649 1726 1589 1701 1684 1628 1688 1757 1572 1685 1598 1672 1679 1669 1707 1627 1635 1657 1635 1690 1657 1669 1675 1639 1539 1663 1701 1685 1741 1664 1716 1662 1743 1790 1663 1707 1683 1677 1688 1723 1676 1741 1664 1691 1805 1726 1744 1738 1713 1690 1682 1735 1725 1747 1682 1777 1711 1774 1699 1692 1643 1706 1719 1735 1795 1701 1679 1686 1670 1737 1678 1811 1699 1712 1716 1663 1764 1623 1711 1752 1719 1724 1658 1722 1707 1773 1694 1706 1728 1708 1674 1719 1636 1606 1592 1655 1713 1682 1578 1666 1669 1665 1679 1634 1703 1688 1680 1721 1707 1773 1684 1673 1683 1670 1675 1672 1621 1609 1675 1701 1635 1613 1694 1642 1610 1633 1678 1658 1681 1594 1663 1786 1627 1594 1670 1622 1632 1726 1641 1615 1699 1592 1662 1617 1715 1604 1661 1615 1650 1648 1645 1640 1661 1623 1694 1605 1643 1621 1664 1672 1632 1716 1725 1628 1708 1690 1606 1674 1691 1659 1670 1686 1599 1645 1691 1606 1622 1651 1665 1650 1644 1631 1691 1662 1674 1661 1640 1704 1567 1696 1586 1664 1662 1611 1591 1627 1645 1628 1640 1648 1649 1699 1615 1644 1502 1658 1590 1713 1608 1542 1641 1659 1562 1642 1636 1628 1672 1666 1614 1634 1683 1694 1643 1682 1624 1636 1682 1589 1619 1706 1699 1685 1607 1642 1618 1619 1652 1699 1625 1664 1728 1610 1587 1583 1635 1630 1615 1596 1582 1607 1624 1642 1614 1642 1713 1611 1648 1635 1639 1644 1694 1632 1637 1665 1592 1604 1697 1686 1600 1675 1634 1669 1644 1612 1596 1614 1632 1630 1582 1672 1698 1606 1634 1650 1644 1580 1605 1618 1584 1579 1693 1678 1622 1644 1676 1643 1663 1607 1576 1610 1646 1634 1670 1621 1689 1587 1713 1528 1634 1633 1654 1630 1615 1641 1665 1615 1666 1628 1617 1734 1651 1717 1590 1612 1570 1664 1652 1583 1605 1582 1662 1640 1628 1694 1666 1609 1712 1586 1663 1671 1617 1624 1646 1608 1635 1649 1655 1623 1607 1673 1634 1621 1709 1657 1643 1608 1674 1681 1647 1599 1672 1650 1590 1713 1683 1670 1697 1682 1678 1732 1703 1621 1568 1675 1632 1628 1658 1718 1581 1642 1717 1665 1638 1636 1644 1675 1617 1665 1669 1645 1590 1630 1688 1648 1611 1674 1670 1617 1606 1579 1621 1640 1661 1621 1616 1590 1722 1598 1706 1656 1648 1524 1651 1641 1602 1667 1629 1657 1641 1636 1675 1628 1697 1653 1674 1608 1649 1620 1599 1615 1572 1629 1704 1661 1632 1656 1633 1734 1694 1665 1673 1622 1625 1661 1638 1631 1637 1620 1638 1591 1651 1680 1639 1628 1629 1663 1640 1644 1651 1579 1601 1640 1605 1689 1638 1655 1636 1655 1605 1640 1589 1677 1638 1650 1653 1623 1631 1624 1608 1683 1695 1708 1662 1645 1575 1607 1662 1701 1667 1702 1687 1713 1634 1682 1701 1699 1586 1668 1677 1607 1721 1712 1559 1596 1683 1682 1745 1699 1656 1709 1675 1666 1720 1650 1659 1672 1687 1703 1680 1729 1644 1742 1672 1795 1606 1692 1702 1709 1723 1659 1704 1651 1695 1680 1662 1696 1676 1604 1700 1634 1695 1700 1713 1649 1728 1642 1667 1673 1654 1614 1623 1685 1666 1666 1606 1666 1635 1726 1711 1654 1683 1658 1608 1619 1696 1644 1682 1590 1598 1574 1633 1589 1727 1609 1653 1688 1591 1603 1651 1615 1604 1661 1621 1672 1686 1697 1702 1647 1687 1589 1693 1689 1722 1658 1650 1609 1594 1587 1625 1596 1588 1649 1694 1607 1632 1687 1590 1689 1635 1580 1682 1701 1646 1631 1643 1637 1642 1624 1629 1559 1686 1621 1733 1575 1691 1654 1691 1635 1626 1631 1627 1585 1653 1655 1626 1692 1598 1633 1703 1585 1617 1646 1664 1622 1631 1595 1688 1650 1559 1616 1640 1602 1637 1693 1643 1613 1646 1764 1717 1590 1709 1611 1601 1617 1637 1639 1739 1599 1733 1616 1598 1661 1617 1605 1662 1668 1630 1657 1727 1662 1619 1662 1707 1612 1556 1590 1659 1651 1606 1661 1608 1693 1581 1660 1681 1645 1626 1614 1676 1571 1654 1636 1605 1679 1707 1635 1529 1636 1684 1626 1657 1620 1596 1646 1639 1657 1721 1635 1673 1567 1655 1605 1718 1611 1641 1651 1645 1666 1605 1726 1590 1635 1579 1643 1669 1606 1668 1673 1654 1602 1726 1706 1664 1679 1662 1683 1647 1686 1646 1724 1662 1639 1622 1645 1629 1659 1724 1676 1655 1673 1660 1749 1755 1722 1697 1663 1736 1632 1691 1756 1777 1715 1764 1748 1731 1763 1857 1760 1790 1752 1744 1817 1791 1762 1885 1849 1847 1825 1982 1897 2014 1991 1945 1981 1914 2015 1935 1876 1886 1918 1997 1989 1953 1900 1948 1950 1863 1930 1910 1988 1961 1937 1878 2047 1988 1938 2059 2038 1995 2037 1892 1949 2038 1976 2017 1876 1873 1945 1898 1931 1888 1875 1788 1841 1821 1865 1743 1820 1815 1778 1824 1773 1892 1787 1825 1854 1857 1864 1804 1750 1815 1674 1765 1751 1712 1728 1808 1727 1788 1756 1671 1699 1757 1723 1680 1719 1794 1764 1798 1746 1664 1616 1681 1779 1687 1779 1710 1630 1715 1791 1716 1735 1701 1859 1690 1707 1756 1727 1680 1611 1743 1750 1691 1716 1712 1701 1767 1649 1735 1644 1702 1607 1690 1707 1686 1748 1718 1732 1753 1689 1690 1609 1658 1633 1692 1696 1690 1669 1701 1778 1645 1714 1634 1681 1670 1635 1653 1666 1684 1671 1655 1691 1641 1654 1657 1622 1708 1655 1671 1638 1662 1693 1677 1665 1638 1654 1602 1682 1687 1645 1658 1643 1672 1731 1608 1661 1658 1654 1719 1764 1669 1724 1618 1623 1664 1696 1672 1715 1663 1670 1668 1676 1724 1644 1701 1687 1739 1676 1669 1731 1714 1660 1692 1720 1735 1704 1668 1668 1657 1711 1671 1728 1750 1686 1680 1721 1665 1656 1724 1710 1657 1698 1679 1685 1701 1725 1712 1750 1647 1738 1674 1680 1660 1680 1762 1718 1680 1609 1735 1670 1699 1660 1772 1645 1693 1672 1670 1710 1692 1601 1686 1672 1661 1715 1601 1651 1676 1614 1615 1591 1668 1645 1734 1676 1683 1671 1651 1750 1590 1687 1665 1681 1685 1652 1677 1718 1689 1670 1690 1642 1680 1678 1711 1716 1665 1689 1740 1688 1599 1563 1658 1643 1596 1713 1672 1678 1571 1742 1691 1677 1572 1717 1657 1689 1586 1649 1630 1696 1685 1676 1574 1680 1637 1678 1618 1740 1582 1636 1747 1650 1621 1655 1647 1615 1647 1653 1675 1616 1643 1611 1764 1666 1649 1663 1659 1690 1650 1662 1617 1687 1636 1703 1661 1678 1620 1600 1563 1635 1640 1603 1678 1657 1653 1649 1666 1687 1633 1615 1610 1650 1672 1642 1616 1651 1704 1656 1619 1623 1631 1634 1654 1665 1686 1610 1641 1680 1722 1690 1639 1616 1604 1679 1707 1595 1678 1643 1692 1623 1655 1709 1636 1672 1683 1626 1643 1586 1646 1748 1578 1639 1606 1648 1735 1682 1699 1687 1570 1672 1584 1602 1662 1742 1635 1730 1643 1645 1645 1686 1600 1720 1617 1627 1643 1719 1716 1614 1649 1719 1672 1680 1598 1680 1589 1694 1715 1660 1623 1633 1656 1597 1632 1670 1559 1668 1614 1612 1685 1635 1679 1683 1706 1681 1658 1603 1598 1558 1641 1616 1659 1636 1692 1559 1689 1613 1651 1609 1644 1655 1694 1627 1667 1641 1621 1622 1647 1719 1742 1644 1693 1643 1599 1594 1634 1662 1656 1618 1648 1747 1713 1678 1658 1680 1673 1603 1643 1616 1598 1588 1614 1607 1575 1558 1682 1628 1657 1657 1563 1583 1670 1691 1668 1632 1603 1621 1644 1609 1684 1656 1688 1671 1625 1649 1695 1656 1629 1675 1661 1692 1671 1566 1706 1674 1670 1635 1603 1608 1655 1662 1653 1603 1651 1691 1659 1680 1676 1599 1550 1585 1609 1622 1632 1690 1684 1635 1666 1692 1764 1681 1631 1639 1706 1699 1628 1678 1640 1630 1639 1663 1651 1659 1631 1681 1707 1666 1580 1721 1739 1715 1621 1591 1636 1735 1654 1711 1588 1642 1714 1546 1602 1610 1636 1678 1625 1748 1651 1639 1630 1612 1589 1671 1611 1641 1644 1670 1629 1648 1633 1611 1667 1676 1626 1660 1630 1667 1639 1639 1703</counts>
			</dataPoints>
		</scan>
	</xrdMeasurement>
</xrdMeasurements>
