<?xml version="1.0"?>
<xrdMeasurements xmlns="http://www.xrdml.com/XRDMeasurement/2.3" xmlns:xsi="http://www.w3.org/2001/XMLSchema-instance" xsi:schemaLocation="http://www.xrdml.com/XRDMeasurement/2.3 http://www.xrdml.com/XRDMeasurement/2.3/XRDMeasurement.xsd" status="Completed" recordIdentifier="{B41FDACF-ACDB-492C-9E67-0FCE948D6285}">
	<comment>
		<entry/>
	</comment>
	<sample type="To be analyzed">
		<id>GPSS_Li1p7Mg0p35Sn0p55Nb0p1Cl4_121325_693cb366f4d05ae3d69752b0</id>
		<name></name>
		<preparedBy></preparedBy>
	</sample>
	<xrdMeasurement measurementType="Scan" status="Completed" sampleMode="Reflection">
		<usedWavelength intended="K-Alpha 1">
			<kAlpha1 unit="Angstrom">1.5405980</kAlpha1>
			<kAlpha2 unit="Angstrom">1.5444260</kAlpha2>
			<kBeta unit="Angstrom">1.3922500</kBeta>
			<ratioKAlpha2KAlpha1>0.5000</ratioKAlpha2KAlpha1>
		</usedWavelength>
		<incidentBeamPath>
			<radius unit="mm">145.00</radius>
			<xRayTube id="1010048" name="Empyrean Cu LFF HR (9430 033 7310x)">
				<tension unit="kV">40.0</tension>
				<current unit="mA">15.0</current>
				<anodeMaterial>Cu</anodeMaterial>
				<focus type="Line">
					<length unit="mm">12.0</length>
					<width unit="mm">0.4</width>
					<takeOffAngle unit="deg">6.0</takeOffAngle>
				</focus>
			</xRayTube>
			<sollerSlit id="21010002" name="Soller slits 0.04 rad.">
				<opening unit="rad">0.0400</opening>
			</sollerSlit>
			<mask id="22031000" name="Fixed mask 13 mm">
				<width unit="mm">9.00</width>
			</mask>
			<divergenceSlit id="22120001" name="Divergence slit 1°" xsi:type="fixedDivergenceSlitType">
				<distanceToSample unit="mm">50.00</distanceToSample>
				<height unit="mm">1.52</height>
			</divergenceSlit>
		</incidentBeamPath>
		<sampleMovement xsi:type="spinningSampleMovementType">
			<spinnerRevolutionTime unit="seconds">1.0</spinnerRevolutionTime>
		</sampleMovement>
		<diffractedBeamPath>
			<radius unit="mm">145.00</radius>
			<antiScatterSlit id="22090040" name="AS slit 9 mm (PIXcel)" xsi:type="fixedAntiScatterSlitType">
				<height unit="mm">9.00</height>
			</antiScatterSlit>
			<sollerSlit id="21020003" name="Large Soller slits 0.04 rad.">
				<opening unit="rad">0.0400</opening>
			</sollerSlit>
			<filter id="20030001" name="Large beta-filter Nickel">
				<material>Ni</material>
				<thickness unit="mm">0.020</thickness>
			</filter>
			<detector id="7010019" name="PIXcel1D-Medipix3 detector" xsi:type="rtmsDetectorType">
				<phd unit="keV">
					<lowerLevel>4.02</lowerLevel>
					<upperLevel>11.27</upperLevel>
				</phd>
				<mode>Scanning</mode>
				<activeLength unit="deg">5.542</activeLength>
			</detector>
		</diffractedBeamPath>
		<scan appendNumber="0" mode="Continuous" scanAxis="Gonio" status="Completed">
			<header>
				<startTimeStamp>2025-12-17T12:12:11-08:00</startTimeStamp>
				<endTimeStamp>2025-12-17T12:20:19-08:00</endTimeStamp>
				<author>
					<name>AutomatedUser</name>
				</author>
				<source>
					<applicationSoftware version="1.7b (136)">PANalytical Aeris Instrument Suite</applicationSoftware>
					<instrumentControlSoftware version="3.2.00000000 20240306">AERIS</instrumentControlSoftware>
					<instrumentID>950485</instrumentID>
				</source>
			</header>
			<dataPoints>
				<positions axis="2Theta" unit="deg">
					<startPosition>10.00943322</startPosition>
					<endPosition>99.99442286</endPosition>
				</positions>
				<positions axis="Omega" unit="deg">
					<startPosition>5.00471661</startPosition>
					<endPosition>49.99721143</endPosition>
				</positions>
				<commonCountingTime unit="seconds">12.495</commonCountingTime>
				<counts unit="counts">3075 2942 3015 3123 2999 3162 3094 3091 3072 3094 2985 3109 3033 3055 2955 3048 3131 3071 3005 3071 3074 3139 3058 2988 3111 3041 3038 3083 3037 3082 3143 2981 3093 3113 3112 3032 3075 3104 3056 3014 3037 3061 3009 3103 3100 3082 3040 2981 3082 3055 3082 3046 3107 3101 3000 3122 3142 3123 3179 3061 3124 3116 3029 3089 3110 3153 3067 2979 3084 3025 3049 3067 2979 3005 3011 3128 3110 3164 3148 3114 3123 3068 3124 3085 3100 3166 3324 3063 3120 3213 3185 3167 3053 3151 3182 3113 3250 3181 3214 2990 3097 3155 3172 3237 3118 3145 3221 3127 3272 3113 3158 3253 3117 3128 3228 3256 3163 3127 3184 3222 3146 3153 3198 3310 3251 3171 3241 3222 3044 3127 3146 3236 3219 3243 3222 3094 3228 3227 3184 3270 3198 3195 3219 3180 3271 3256 3138 3176 3202 3172 3166 3243 3176 3234 3211 3311 3209 3228 3297 3171 3302 3180 3117 3283 3267 3300 3264 3373 3113 3139 3227 3168 3201 3294 3328 3281 3196 3213 3095 3149 3115 3235 3245 3163 3152 3225 3229 3270 3158 3314 3196 3260 3160 3247 3226 3198 3259 3179 3124 3114 3233 3167 3208 3211 3069 3125 3155 3213 3248 3104 3267 3188 3249 3242 3233 3286 3171 3239 3228 3107 3216 3135 3211 3139 3203 3188 3276 3201 3223 3197 3202 3148 3092 3213 3205 3223 3131 3192 3190 3246 3227 3244 3178 3291 3214 3151 3174 3082 3215 3045 3146 3146 3209 3194 3150 3177 3137 3190 3184 3079 3149 3158 3130 3118 3126 3023 3029 3092 3134 3142 3239 3059 3225 3105 3207 2980 3151 3166 3145 3187 3219 3144 3155 3149 3131 3068 3034 3059 3109 3134 3131 3138 3193 3236 3208 3126 3214 3200 3141 3165 3154 3240 3144 3113 3195 3199 3225 3155 3145 3140 3207 3152 3230 3231 3110 3133 3086 3157 3215 3174 3154 3221 3198 3242 3300 3294 3224 3273 3239 3166 3287 3218 3296 3321 3255 3305 3311 3331 3321 3283 3273 3354 3343 3334 3427 3299 3339 3422 3400 3412 3383 3311 3369 3372 3535 3424 3339 3260 3414 3465 3394 3422 3349 3503 3358 3302 3468 3506 3462 3471 3448 3447 3546 3484 3477 3432 3443 3481 3602 3489 3494 3515 3612 3593 3618 3607 3473 3492 3608 3694 3554 3635 3580 3754 3635 3635 3634 3665 3520 3647 3501 3634 3763 3625 3653 3589 3636 3686 3584 3552 3580 3547 3704 3653 3569 3700 3606 3725 3731 3722 3816 3695 3736 3849 3790 3765 3776 3891 3951 3798 4072 3975 3927 3916 3852 3885 3777 3763 3656 3749 3677 3654 3671 3531 3603 3568 3591 3543 3513 3467 3427 3512 3405 3505 3410 3476 3358 3359 3316 3474 3366 3273 3284 3286 3363 3339 3355 3457 3187 3329 3259 3388 3278 3310 3386 3291 3304 3246 3386 3263 3232 3311 3155 3428 3317 3285 3317 3295 3262 3319 3155 3242 3162 3130 3203 3102 3255 3234 3272 3191 3193 3224 3251 3125 3246 3160 3137 3168 3102 3083 3157 3102 3117 3041 3108 3113 3227 3148 3109 3127 3112 3180 3098 3054 3091 3062 3061 3063 3060 3093 3113 3079 2985 2942 3101 3063 3152 3078 2981 2930 2941 3089 2946 3034 2988 2894 3053 2929 2965 2977 2979 2949 2963 2886 3018 2952 2816 2882 2975 2952 3084 2904 2878 2909 2868 2930 2956 2905 2883 2851 2952 2920 2851 2917 2757 2760 2839 2839 2841 2825 2825 2856 2981 2872 2825 2835 2985 2836 2823 2790 2826 2875 2821 2801 2847 2794 2833 2817 2786 2767 2837 2887 2735 2846 2748 2844 2732 2843 2864 2802 2753 2741 2740 2796 2747 2852 2832 2645 2738 2743 2721 2754 2762 2767 2798 2720 2716 2709 2653 2762 2743 2667 2711 2692 2777 2698 2854 2746 2725 2770 2749 2673 2669 2701 2725 2744 2802 2565 2804 2716 2729 2713 2627 2811 2806 2724 2846 2608 2677 2633 2808 2702 2668 2674 2738 2715 2698 2655 2718 2670 2618 2668 2597 2794 2695 2663 2673 2671 2717 2706 2728 2684 2769 2701 2808 2729 2741 2676 2785 2757 2584 2772 2668 2720 2684 2636 2662 2658 2616 2761 2708 2736 2470 2543 2653 2689 2644 2557 2691 2584 2583 2619 2625 2649 2731 2631 2595 2705 2557 2716 2554 2632 2481 2555 2516 2571 2571 2658 2606 2561 2623 2611 2675 2647 2505 2624 2562 2720 2640 2570 2590 2653 2633 2573 2517 2649 2628 2563 2664 2548 2669 2573 2649 2510 2583 2609 2556 2556 2573 2554 2644 2589 2517 2656 2599 2726 2620 2617 2596 2576 2667 2615 2552 2632 2509 2643 2617 2532 2642 2524 2623 2550 2676 2572 2720 2711 2598 2639 2714 2617 2555 2652 2609 2596 2567 2617 2482 2603 2424 2521 2536 2581 2544 2502 2536 2570 2559 2573 2590 2483 2556 2555 2509 2520 2594 2577 2540 2567 2541 2614 2601 2464 2580 2533 2683 2633 2497 2515 2611 2717 2807 2713 2772 2712 2774 2904 2773 2952 2967 2958 3000 2994 3097 3108 3151 3086 3199 3213 3355 3252 3397 3152 3167 3066 3115 3006 2928 2990 2866 2825 2694 2701 2726 2668 2657 2712 2681 2534 2656 2493 2592 2473 2485 2488 2509 2454 2459 2483 2507 2467 2478 2499 2525 2498 2519 2491 2534 2544 2559 2544 2406 2441 2459 2425 2421 2432 2491 2454 2450 2390 2345 2427 2406 2405 2368 2408 2364 2369 2359 2475 2343 2358 2377 2440 2347 2298 2336 2270 2309 2368 2370 2299 2311 2258 2369 2411 2293 2418 2365 2348 2333 2383 2343 2420 2434 2428 2336 2331 2336 2348 2280 2419 2365 2415 2438 2310 2317 2353 2285 2361 2322 2246 2310 2342 2290 2322 2304 2332 2299 2385 2319 2290 2308 2247 2320 2314 2292 2348 2277 2324 2287 2365 2294 2251 2249 2248 2205 2355 2218 2205 2302 2317 2295 2325 2257 2366 2236 2359 2215 2263 2240 2289 2257 2318 2278 2309 2333 2277 2226 2287 2301 2212 2194 2287 2253 2312 2271 2307 2196 2313 2278 2307 2200 2251 2332 2268 2312 2307 2226 2251 2280 2306 2314 2245 2194 2264 2291 2252 2317 2309 2356 2229 2302 2277 2224 2296 2262 2295 2365 2318 2402 2219 2324 2321 2169 2331 2248 2319 2263 2380 2338 2256 2268 2401 2263 2404 2265 2289 2243 2300 2343 2277 2245 2268 2268 2297 2283 2209 2282 2274 2296 2343 2296 2330 2313 2309 2299 2254 2285 2277 2317 2328 2297 2278 2309 2334 2365 2328 2192 2250 2363 2458 2293 2271 2216 2296 2182 2254 2374 2285 2316 2347 2362 2356 2257 2297 2379 2338 2421 2465 2440 2478 2449 2477 2494 2487 2677 2706 2735 2644 2701 2729 2895 2911 2899 2875 3052 2926 3021 2857 2921 3033 3061 2936 2962 3014 3128 3035 3181 3125 3040 2967 2961 3068 2969 2772 2751 2679 2584 2562 2547 2509 2437 2364 2317 2295 2290 2338 2310 2334 2294 2321 2427 2394 2426 2402 2485 2471 2539 2600 2587 2633 2677 2753 2739 2615 2672 2730 2642 2602 2474 2483 2484 2415 2390 2315 2229 2243 2112 2056 2025 1975 2007 1948 2021 1935 2000 1986 1858 1943 1931 1918 1956 1848 1868 1991 1884 1915 1814 1886 1867 1824 1869 1878 1792 1866 1777 1907 1758 1862 1769 1808 1795 1837 1773 1800 1782 1816 1840 1831 1848 1787 1893 1785 1801 1798 1741 1786 1820 1685 1812 1781 1792 1844 1765 1718 1721 1819 1878 1751 1850 1753 1846 1812 1852 1848 1814 1808 1766 1764 1798 1830 1824 1854 1905 1859 1848 1829 1791 1821 1807 1858 1845 1878 1880 1859 1719 1868 1798 1797 1680 1815 1740 1753 1762 1718 1697 1702 1674 1683 1651 1666 1692 1743 1668 1596 1683 1767 1722 1690 1686 1641 1680 1665 1740 1582 1616 1568 1713 1702 1689 1654 1578 1574 1492 1593 1549 1605 1603 1654 1623 1648 1522 1639 1512 1701 1507 1596 1615 1597 1618 1633 1629 1591 1536 1499 1577 1574 1523 1620 1581 1610 1599 1659 1622 1661 1589 1556 1656 1592 1665 1646 1651 1714 1777 1761 1715 1776 1787 1823 1861 1949 2033 2192 2205 2192 2320 2400 2406 2514 2508 2682 2625 2685 2817 2825 2931 3126 3238 3375 3382 3523 3354 3354 3302 3260 3012 3002 2927 2641 2503 2419 2359 2193 2088 1871 1879 1895 1855 1737 1649 1685 1669 1592 1641 1610 1652 1608 1617 1512 1627 1580 1563 1504 1595 1546 1625 1561 1604 1511 1601 1557 1633 1567 1561 1590 1540 1571 1558 1619 1572 1619 1613 1530 1559 1563 1518 1535 1628 1569 1610 1513 1522 1605 1519 1612 1547 1536 1562 1530 1535 1549 1530 1542 1486 1667 1510 1549 1540 1536 1537 1489 1580 1543 1544 1518 1552 1506 1550 1565 1602 1547 1491 1539 1535 1469 1514 1499 1595 1580 1527 1598 1513 1522 1486 1451 1505 1569 1473 1490 1519 1566 1510 1538 1480 1519 1545 1519 1506 1457 1532 1450 1495 1518 1485 1548 1493 1438 1529 1527 1419 1474 1489 1491 1566 1472 1454 1484 1455 1362 1398 1406 1399 1518 1506 1426 1467 1371 1339 1446 1435 1461 1406 1401 1408 1425 1498 1402 1270 1436 1361 1386 1342 1275 1399 1435 1405 1386 1343 1319 1378 1403 1412 1388 1375 1330 1358 1401 1399 1395 1350 1291 1415 1356 1354 1303 1397 1309 1285 1278 1312 1421 1328 1352 1275 1255 1321 1341 1267 1336 1239 1292 1330 1293 1237 1264 1348 1210 1308 1290 1270 1292 1243 1280 1236 1252 1311 1289 1293 1342 1258 1210 1257 1249 1248 1292 1299 1275 1236 1295 1263 1260 1229 1257 1196 1221 1211 1218 1199 1216 1242 1215 1189 1168 1186 1218 1137 1189 1184 1225 1214 1222 1185 1165 1182 1198 1222 1183 1147 1122 1132 1137 1234 1117 1145 1084 1116 1099 1116 1133 1141 1143 1130 1166 1121 1104 1150 1184 1205 1141 1200 1109 1176 1176 1043 1197 1104 1127 1130 1089 1127 1153 1100 1177 1170 1090 1182 1171 1183 1138 1230 1159 1161 1181 1195 1171 1159 1178 1163 1200 1157 1185 1159 1117 1218 1138 1085 1173 1140 1084 1077 1045 1111 1101 1074 1107 1025 1127 1000 1066 1068 1048 1055 1086 1064 1003 1041 1047 1117 1038 1102 979 1016 1079 1036 1039 1021 1027 1067 1017 998 1001 1046 1069 1016 1048 1032 1055 1002 1041 1045 985 1022 1027 1025 1032 1019 1046 1013 961 970 1039 1004 998 1013 1075 1064 998 1057 1041 1051 975 997 1068 1065 1033 1088 1006 1000 1052 1055 1076 1021 1127 1123 1058 1084 1124 1077 1047 1129 1107 1153 1235 1237 1299 1381 1382 1443 1495 1629 1696 1821 1893 1938 2079 2096 2202 2165 2298 2404 2482 2588 2719 2798 2879 2948 3029 3027 3035 2854 2760 2632 2635 2433 2435 2276 2237 2051 1964 2004 1961 2015 1945 2033 1976 2098 2311 2209 2471 2376 2668 2733 2969 2991 3219 3245 3476 3583 3964 3920 4020 3909 4182 4011 4026 3893 3814 3666 3500 3319 2993 2874 2641 2491 2370 2183 2126 1969 1855 1756 1679 1540 1507 1468 1359 1326 1337 1252 1317 1229 1248 1244 1248 1364 1170 1199 1196 1190 1193 1250 1301 1325 1337 1308 1328 1352 1305 1323 1262 1232 1144 1156 1127 1090 1100 1065 1080 1041 975 955 962 962 913 893 898 907 912 922 937 897 914 977 993 967 958 915 956 895 945 956 927 898 927 999 998 913 961 973 922 939 908 936 922 900 932 837 925 934 925 888 962 931 889 882 868 967 948 923 891 908 902 926 915 927 924 987 942 951 941 1015 925 944 957 906 932 901 878 885 881 868 875 878 832 878 800 872 842 809 815 887 759 760 839 859 837 836 852 822 863 806 847 846 851 792 829 825 830 792 872 880 832 919 878 871 945 939 928 1019 1043 1079 1116 1211 1239 1306 1332 1449 1404 1454 1453 1487 1551 1549 1686 1740 1707 1792 1815 1820 1820 1803 1664 1681 1535 1494 1461 1381 1363 1302 1224 1176 1047 1014 951 976 924 905 930 909 889 906 803 869 801 875 840 845 788 849 795 828 782 788 852 768 770 774 727 755 768 770 780 722 772 795 744 757 716 740 723 779 822 766 735 726 746 787 743 779 741 696 730 684 721 694 685 746 781 760 812 723 738 812 760 723 769 736 783 728 745 747 707 733 796 759 742 719 733 745 707 745 713 762 679 740 717 747 708 709 712 702 692 765 689 760 698 760 774 719 712 723 737 686 729 720 698 758 672 712 720 734 739 704 720 721 733 685 761 688 689 740 704 720 721 693 734 665 786 774 791 752 747 693 733 766 739 718 745 704 696 732 747 745 736 751 702 709 756 748 722 715 794 741 832 758 777 758 778 749 815 787 733 799 778 755 812 787 851 818 830 797 849 831 944 842 943 974 973 1004 1043 1136 1099 1305 1318 1462 1510 1593 1638 1731 1833 1946 2026 2090 2133 2296 2414 2509 2650 2625 2685 2789 2757 2691 2611 2621 2565 2461 2364 2232 2061 1915 1969 1838 1715 1636 1525 1472 1403 1336 1390 1307 1373 1397 1422 1522 1398 1544 1592 1809 1784 1886 2044 2118 2140 2186 2419 2509 2676 2605 2914 2829 2984 2837 3056 2940 3014 2776 2839 2548 2610 2368 2255 2166 2045 1980 1787 1707 1563 1472 1261 1183 1178 1123 1017 962 989 963 883 843 880 855 822 851 795 775 769 766 807 820 794 835 818 862 829 804 869 868 915 964 976 957 1118 1110 1182 1249 1308 1363 1407 1441 1452 1452 1509 1613 1650 1780 1787 1891 1818 1921 1963 1994 1927 1852 1824 1649 1560 1489 1378 1428 1332 1245 1181 1133 1026 913 874 830 823 802 755 750 723 794 729 758 698 736 714 725 687 646 728 693 676 717 686 761 693 671 701 664 704 725 703 653 692 672 649 649 687 648 639 672 676 657 650 697 632 685 691 685 715 704 698 658 646 749 683 695 695 695 690 734 685 757 654 681 757 663 701 666 675 669 719 682 684 632 654 637 647 642 695 634 636 637 605 617 605 600 596 606 614 590 609 678 601 644 611 634 645 569 661 627 619 626 603 620 593 607 591 588 581 608 634 599 589 613 615 631 660 661 638 648 626 674 661 631 638 620 617 693 695 658 663 676 685 667 676 692 679 728 694 696 778 734 734 748 721 725 722 720 699 674 657 689 714 682 643 679 623 594 600 632 656 558 585 606 663 607 617 618 546 555 617 581 579 589 583 597 575 578 583 632 574 575 560 592 618 596 616 535 591 594 602 570 596 589 583 579 606 575 597 592 574 570 593 620 624 608 669 623 596 556 647 610 657 598 603 568 601 615 583 634 607 625 621 649 601 572 578 575 616 630 585 603 569 648 573 563 598 549 584 553 584 552 575 626 600 567 583 534 560 577 603 560 603 578 571 561 588 586 586 543 562 554 529 551 528 544 588 549 549 537 566 579 539 571 608 538 561 530 535 592 541 540 570 536 551 554 594 580 568 489 538 545 577 564 612 563 567 626 597 585 601 585 641 630 573 651 612 670 644 693 650 622 715 653 591 633 608 617 603 587 587 600 573 589 636 530 585 562 532 559 541 535 562 551 592 593 545 552 525 548 561 524 555 495 560 527 536 534 522 533 537 573 564 581 605 567 611 613 636 646 677 641 767 700 744 775 808 766 769 747 799 778 781 842 832 901 946 941 890 917 894 911 823 817 790 717 777 713 770 682 705 643 701 639 578 610 608 575 530 582 556 533 545 562 568 541 568 555 538 519 569 579 529 546 571 573 539 587 555 556 527 543 590 581 624 534 614 581 596 560 611 551 581 625 634 625 657 642 675 657 700 751 708 816 807 874 844 935 871 904 951 922 894 982 962 963 1033 1047 1015 1036 1069 1050 1057 1024 975 996 955 895 926 876 914 880 914 868 831 803 798 811 712 723 691 713 695 655 640 660 597 588 619 655 586 589 582 583 568 542 538 544 577 578 562 541 571 610 605 615 621 614 665 657 724 763 793 875 862 920 884 963 941 996 948 956 1033 1048 1092 1098 1059 1100 1042 1058 1079 934 968 903 930 841 883 820 821 747 712 730 652 638 626 606 606 608 572 568 535 575 552 577 583 523 511 526 572 494 506 545 496 532 526 568 548 542 575 537 513 531 493 554 545 518 525 516 527 502 528 500 484 499 521 454 482 482 503 492 499 547 504 559 517 519 518 510 497 544 501 583 521 549 519 534 545 527 513 545 523 552 577 560 599 583 566 620 606 625 669 651 710 809 783 820 931 933 982 1056 1085 1077 1153 1254 1325 1395 1519 1475 1626 1654 1702 1657 1597 1474 1413 1315 1221 1183 1142 1146 1091 1026 1021 957 866 807 793 720 659 632 622 587 567 519 557 498 508 577 537 540 587 480 522 503 443 502 515 474 502 518 508 552 476 522 482 497 463 487 478 455 522 540 463 479 475 503 485 479 489 522 488 486 498 501 516 512 489 471 443 437 497 501 503 465 491 494 494 463 476 470 477 484 487 464 483 469 479 499 525 498 482 499 471 485 476 497 501 471 492 493 482 466 508 469 492 483 528 468 492 499 453 473 472 508 486 494 478 511 541 480 486 429 482 514 478 512 442 457 508 497 477 474 446 482 460 522 480 448 458 513 458 502 481 464 506 479 489 434 474 423 454 449 456 462 463 419 463 489 454 463 429 503 463 461 437 458 479 464 440 485 437 474 443 445 464 462 449 441 470 468 464 468 429 436 422 445 466 437 473 427 439 466 483 472 467 459 490 499 494 489 480 478 511 454 486 475 520 513 516 496 521 525 513 542 566 509 548 556 574 554 552 592 558 556 596 600 617 634 613 628 613 599 616 589 613 583 590 603 630 573 605 592 619 619 602 603 618 640 552 606 593 613 625 597 576 605 562 578 584 570 566 561 538 543 520 494 505 522 491 528 514 505 515 481 503 503 496 484 518 478 511 481 548 498 477 491 530 501 479 465 494 508 454 464 496 496 495 513 487 477 490 517 494 502 457 474 517 502 522 484 494 476 505 523 503 516 505 490 499 484 526 501 524 496 492 496 524 470 490 519 489 510 498 504 521 454 500 498 476 458 501 494 547 474 516 570 494 530 509 545 505 538 532 541 530 542 542 539 520 507 554 523 528 518 527 550 516 507 447 476 482 464 538 461 490 487 454 498 459 501 456 555 475 538 549 563 511 499 533 521 537 529 563 582 583 625 612 620 574 643 586 597 624 622 619 625 565 587 590 556 571 569 573 565 608 612 551 602 511 508 489 461 510 486 457 479 489 474 493 438 447 442 408 418 442 399 453 458 430 457 423 415 429 457 454 416 412 471 432 442 410 453 420 462 415 481 424 398 408 430 416 456 417 441 440 454 456 453 438 450 454 429 438 466 398 410 408 395 407 419 407 408 421 382 420 404 425 375 405 373 425 447 390 435 408 395 419 411 412 415 495 424 428 443 451 442 456 440 431 413 425 421 395 454 439 413 460 432 396 416 459 440 444 378 420 396 404 404 415 368 403 435 417 411 450 356 431 436 400 432 415 408 406 413 425 411 413 403 407 458 389 433 386 411 425 400 428 416 386 424 419 472 417 404 462 402 446 416 464 433 468 419 436 443 472 444 430 472 426 470 449 467 447 429 429 415 444 465 448 492 460 476 447 490 447 455 484 457 492 535 488 550 576 572 661 688 729 751 816 909 983 942 938 956 984 986 934 1052 1162 1163 1227 1222 1253 1209 1169 1080 1072 1013 953 925 935 902 912 857 870 844 798 779 688 677 657 631 588 535 527 485 517 504 476 466 482 507 528 494 485 469 474 548 525 469 516 501 563 561 608 601 595 665 686 672 742 789 784 829 902 959 996 916 915 979 1016 1030 1134 1092 1104 1141 1096 1099 1011 1111 1041 983 929 921 886 890 879 836 824 802 767 791 698 707 619 631 617 567 547 526 545 532 535 497 481 492 488 471 487 456 461 438 444 462 452 440 422 417 391 408 418 407 407 366 400 371 396 408 450 385 407 377 427 415 433 381 379 390 347 365 349 393 390 391 382 375 378 380 359 365 415 409 397 384 392 378 399 392 386 366 420 407 387 401 394 377 405 403 412 416 418 413 435 408 442 432 401 493 440 437 445 443 480 520 457 476 490 491 446 493 469 521 521 516 481 487 546 503 496 428 482 486 452 478 465 420 391 395 437 417 399 376 397 381 374 363 410 398 391 398 377 386 407 391 424 410 405 399 396 418 439 445 405 432 453 432 428 472 394 455 419 435 454 457 416 413 442 402 413 417 427 437 438 417 448 431 419 411 396 380 371 412 419 393 393 439 382 438 351 389 415 380 415 383 358 406 384 391 347 390 366 334 411 347 356 346 392 345 395 376 339 333 371 358 359 356 373 359 370 339 414 354 320 359 357 389 373 370 321 317 357 362 341 373 339 370 388 384 357 380 382 337 381 381 385 342 351 363 374 350 370 343 361 375 374 416 417 357 412 429 396 418 415 443 395 425 444 460 459 435 432 445 424 427 450 458 396 461 429 402 429 370 415 380 420 356 392 339 358 383 388 361 391 401 385 373 394 347 349 361 367 313 364 354 376 338 336 366 341 326 368 379 334 349 332 366 332 347 346 382 366 340 389 394 351 415 392 427 439 455 451 443 494 522 527 533 514 513 545 500 543 571 572 629 570 551 537 530 499 496 494 456 448 417 457 420 420 428 412 442 400 395 430 390 405 368 398 370 359 397 348 340 342 300 380 349 339 305 320 324 322 349 388 344 369 356 370 333 352 354 336 350 386 335 346 351 377 354 337 348 361 335 363 344 356 350 337 326 345 341 321 329 330 329 355 364 359 344 350 336 348 374 333 321 324 337 350 326 340 347 307 329 314 349 341 353 366 364 334 331 309 392 332 370 362 335 379 335 376 387 370 407 379 393 426 406 411 448 398 413 427 424 435 424 420 487 421 458 464 444 453 448 447 438 398 415 381 404 395 434 391 372 341 358 355 355 373 332 317 329 311 350 341 361 310 348 354 343 329 294 313 317 343 310 344 284 323 372 323 330 332 350 359 327 319 367 349 313 343 334 337 327 341 364 353 335 329 354 398 358 348 340 348 344 336 315 350 342 322 316 334 304 322 294 297 339 336 339 330 323 303 313 366 344 342 331 310 333 360 331 367 323 331 330 332 335 347 375 393 354 356 396 367 336 319 317 348 333 328 308 362 331 360 359 322 324 347 323 327 333 366 330 354 323 338 347 325 315 327 299 308 352 324 364 307 340 288 339 331 321 285 298 340 312 316 305 276 302 285 296 289 297 293 308 336 315 351 300 340 343 295 299 320 321 312 317 346 324 353 325 314 295 297 334 279 307 326 312 326 332 318 311 342 311 330 346 347 341 348 315 343 357 303 319 334 319 356 333 302 317 291 304 309 291 295 297 323 326 329 310 320 338 326 348 316 372 315 363 293 343 325 350 304 310 359 342 325 364 335 333 321 353 349 326 314 349 318 348 322 294 325 328 323 329 335 310 319 307 321 346 316 339 345 335 318 364 378 355 403 393 411 479 459 464 478 518 428 460 469 458 460 492 506 457 455 427 471 474 452 459 435 449 459 418 434 399 441 393 395 403 383 390 421 368 416 401 339 382 381 415 383 438 466 442 452 460 519 481 527 493 545 478 552 537 523 595 546 570 575 539 571 571 503 519 488 495 513 512 488 491 539 539 521 515 496 497 483 449 512 443 457 466 465 482 440 455 466 455 466 476 467 464 454 433 425 408 440 406 438 442 447 399 437 422 418 458 424 415 425 430 448 415 458 397 457 408 467 460 529 492 570 557 579 566 640 636 693 657 662 664 660 662 652 623 656 634 591 590 610 652 639 618 589 573 541 550 489 556 517 489 500 470 492 458 451 418 425 404 404 393 366 371 354 378 383 381 384 370 354 372 327 342 369 369 353 367 352 340 340 344 336 352 395 376 322 336 333 411 369 369 360 369 376 342 372 364 341 405 368 342 375 329 340 354 342 352 322 326 309 360 332 326 356 329 329 311 325 331 365 314 332 347 378 306 301 307 305 311 305 303 306 325 289 317 307 294 291 300 278 295 316 303 289 308 294 308 285 282 299 326 269 324 280 297 303 303 302 326 289 308 297 301 281 319 311 324 287 281 307 323 291 265 271 299 271 313 302 313 280 296 275 307 275 259 274 295 310 273 268 306 283 307 294 288 305 288 307 318 336 291 318 329 348 316 302 339 349 403 404 390 416 442 417 398 441 393 437 408 423 458 458 464 473 480 514 465 437 480 475 432 458 424 408 393 410 361 404 387 380 406 386 340 351 362 351 350 367 360 364 323 315 333 340 338 299 339 304 298 301 304 280 280 285 279 319 287 314 288 297 312 315 243 327 295 307 328 322 300 310 298 329 276 314 338 337 323 325 338 321 353 368 407 392 405 395 405 425 483 437 487 459 480 474 469 462 509 475 483 471 460 475 458 435 417 425 388 403 427 384 413 402 431 363 391 354 373 320 327 332 341 348 331 309 368 297 345 337 324 323 303 285 290 320 306 301 313 317 331 320 327 330 319 316 335 263 285 300 292 284 298 286 326 299 272 264 249 299 291 299 292 274 314 296 309 263 306 264 273 310 283 285 287 293 296 321 257 294 278 295 325 298 324 307 307 306 314 314 286 327 314 339 330 296 360 304 347 321 325 308 320 301 282 319 324 311 343 346 333 347 316 332 304 304 324 299 304 299 325 278 298 280 299 323 347 328 327 323 327 372 374 359 350 388 356 365 344 371 354 387 357 378 392 411 436 399 382 382 375 378 351 365 360 332 319 317 346 346 335 370 359 317 332 329 323 305 316 306 324 311 314 331 329 301 329 284 296 298 290 282 306 280 309 291 335 306 317 316 298 300 264 272 285 296 287 283 278 303 300 273 308 288 258 286 292 302 290 290 290 280 285 302 285 304 291 294 295 317 297 313 307 305 302 305 332 311 323 315 308 325 280 285 339 281 316 309 300 326 301 362 337 345 317 356 358 344 334 350 322 321 363 361 352 383 343 394 384 390 350 343 388 365 350 380 373 378 349 353 391 364 398 373 364 354 397 359 348 353 389 369 363 360 348 354 380 340 320 336 286 293 256 327 287 315 318 271 286 279 304 302 334 290 284 267 293 299 287 284 269 270 268 265 288 284 232 263 276 269 302 270 291 227 250 273 225 258 248 261 262 300 257 273 245 275 311 264 283 266 271 290 238 274 227 269 240 257 270 239 271 273 219 267 238 228 266 245 268 237 243 286 246 263 247 278 275 248 260 247 249 238 225 257 250 244 240 265 290 260 295 258 258 309 261 279 264 293 280 291 265 242 256 294 258 238 273 243 239 274 229 227 224 229 284 245 281 244 289 242 282 245 228 281 244 248 244 259 260 282 265 289 243 287 261 236 284 248 274 258 232 233 244 274 265 261 230 293 268 269 244 229 264 269 269 236 270 236 269 241 268 256 221 257 216 243 242 276 242 273 273 268 235 265 265 268 256 263 282 271 283 275 269 279 264 288 225 249 244 230 268 277 245 273 296 237 268 264 268 265 280 256 269 275 251 290 258 238 227 240 240 227 262 259 257 266 266 240 276 259 259 236 258 239 221 251 230 223 234 230 234 267 236 236 263 266 257 249 240 233 237 214 259 203 239 244 249 226 244 226 260 262 234 287 248 235 257 251 263 281 310 268 277 289 259 275 245 278 301 265 287 276 290 284 267 285 279 288 275 285 273 268 270 265 309 264 304 290 273 284 293 291 301 295 299 291 326 283 262 293 273 291 291 324 278 282 313 294 290 302 274 315 314 298 327 320 317 292 288 310 317 266 295 277 323 269 287 243 285 304 265 279 269 285 241 280 277 244 274 260 272 291 262 229 245 239 244 218 249 244 234 241 263 218 266 241 276 245 210 226 237 243 247 223 236 243 217 235 240 207 208 197 222 282 236 205 208 227 196 246 220 233 219 234 223 222 230 247 263 236 265 210 222 247 247 227 270 295 226 229 258 236 226 237 215 232 223 228 236 219 208 246 243 234 220 221 250 233 207 236 215 223 189 276 262 245 241 239 242 269 258 244 239 248 218 245 221 242 211 215 229 196 241 225 235 229 266 248 263 284 268 276 267 283 275 283 295 279 269 273 272 298 295 265 330 292 296 296 289 294 274 294 261 260 293 293 283 286 293 240 271 274 235 279 279 271 280 260 265 249 241 243 250 266 227 265 244 271 245 263 226 229 223 250 228 262 232 240 257 257 230 267 240 262 281 298 261 270 250 266 264 264 262 247 270 267 276 245 284 220 271 257 246 221 260 239 236 249 260 249 235 229 273 226 274 244 248 239 246 234 236 232 243 233 221 235 230 262 225 229 219 219 236 230 217 228 246 235 216 227 233 234 236 261 243 226 227 241 256 272 226 246 263 268 262 228 232 221 235 231 236 221 234 241 260 268 278 256 232 248 226 226 256 247 274 240 249 257 266 236 260 273 270 257 299 244 304 320 275 312 277 341 278 278 305 300 295 310 262 316 279 308 266 284 310 269 292 311 309 299 301 300 295 272 258 277 311 271 292 243 304 236 287 294 267 289 268 247 278 248 237 246 238 282 245 237 259 225 237 274 243 269 241 234 235 214 265 234 251 276 229 257 251 230 247 274 279 274 278 245 230 273 271 277 274 281 248 294 306 283 304 283 295 259 304 319 243 271 318 299 317 322 271 296 305 283 294 321 308 307 313 300 318 311 304 334 328 317 292 317 328 294 298 281 329 283 310 302 292 300 294 306 282 285 290 300 271 304 287 292 305 317 294 290 284 331 275 283 298 246 265 306 296 262 285 279 278 243 290 228 265 261 242 274 240 266 301 241 238 275 246 227 267 238 286 246 231 244 260 232 218 226 241 278 284 287 212 242 243 241 262 232 256 299 271 238 291 265 267 247 283 270 267 248 290 265 257 270 268 275 310 283 310 270 278 294 256 303 265 260 249 258 246 248 232 265 274 238 256 238 263 223 245 264 234 195 226 260 240 260 258 248 270 269 266 245 228 235 234 234 243 206 240 235 269 286 244 274 261 269 277 276 282 294 282 302 287 295 309 273 291 289 288 308 292 318 303 337 339 322 296 332 327 305 301 340 305 331 303 298 325 293 292 292 274 290 309 280 249 289 305 295 279 260 279 258 261 240 244 271 257 263 246 258 217 237 238 233 247 225 219 273 224 248 259 213 185 238 207 225 240 223 209 235 222 213 229 219 233 245 209 239 211 212 237 219 259 237 244 205 231 250 231 245 227 225 233 237 242 248 222 242 263 238 263 228 256 239 238 225 230 228 265 272 245 245 248 226 278 234 294 242 272 248 277 273 240 273 257 268 244 248 269 269 285 243 271 277 280 269 242 261 271 239 289 259 258 258 264 264 278 277 246 264 256 235 295 244 270 245 270 274 236 233 223 230 223 262 222 232 266 266 249 227 263 274 231 286 259 271 263 273 294 259 245 248 269 235 244 232 240 239 287 249 271 233 242 226 257 228 235 212 271 220 268 226 263 208 249 247 261 267 263 263 263 239 244 225 213 237 286 246 236 245 227 244 244 272 227 269 265 244 235 244 228 286 222 292 239 259 237 257 230 237 242 239 248 212 244 247 245 198 242 245 243 220 242 241 221 266 228 216 217 226 246 233 261 262 233 232 208 271 228 240 257 238 245 207 227 198 219 222 216 261 235 224 220 221 226 221 217 243 246 239 226 262 218 244 214 235 233 238 272 238 197 223 243 220 261 180 261 209 225 206 229 211 260 232 231 233 217 226 211 249 229 244 214 244 238 278 247 207 238 210 273 242 212 262 231 199 232 258 218 233 235 230 274 258 233 239 266 247 242 235 234 223 272 228 236 223 237 237 204 206 241 198 233 228 226 269 240 213 228 248 271 257 215 228 232 223 223 223 195 225 242 215 222 241 278 246 242 220 248 229 268 245 244 207 270 268 233 269 267 260 257 220 267 240 249 275 236 279 237 257 238 240 244 265 270 271 250 281 282 283 269 277 277 311 292 289 290 277 289 297 311 302 322 316 286 299 310 268 245 260 313 292 290 317 292 267 323 312 292 295 294 275 292 335 317 306 315 337 294 305 321 290 297 304 280 328 313 283 306 313 299 287 278 280 283 259 306 280 321 274 282 307 274 277 273 249 264 265 289 305 295 291 283 302 265 245 250 270 247 233 266 248 261 226 262 241 263 226 246 216 233 274 231 243 216 258 237 244 263 222 225 248 256 235 221 273 262 216 238 301 208 228 222 258 256 231 243 213 239 234 247 248 279 242 299 248 281 246 241 259 282 248 274 249 225 273 264 258 241 289 260 274 261 263 274 260 297 345 290 321 292 289 276 311 331 330 321 338 339 329 312 303 308 331 327 321 303 327 305 322 272 308 304 300 319 308 319 294 271 263 304 285 316 310 296 288 301 284 269 287 289 258 273 262 273 256 235 259 247 270 250 278 273 257 290 213 274 249 242 227 278 236 214 229 214 246 240 228 235 236 284 223 242 256 247 260 263 248 266 246 266 258 283 246 262 227 241 225 247 261 235 277 233 260 232 244 240 233 249 248 259 264 236 246 278 265 258 311 296 275 249 318 317 291 298 280 285 316 338 327 352 333 366 336 335 313 343 362 347 353 362 343 329 360 322 339 338 342 310 333 286 350 365 349 347 362 338 330 289 317 318 365 327 327 323 338 300 284 288 293 281 265 290 264 280 284 264 268 235 269 263 313 238 250 230 287 263 224 242 237 262 244 203 247 231 240 222 233 239 245 244 231 225 246 222 231 256 246 271 274 250 247 228 281 248 260 237 287 239 244 259 274 268 256 275 290 272 219 286 258 286 256 287 274 297 282 264 311 296 299 295 315 350 305 310 312 364 369 344 339 354 348 347 346 377 358 388 414 396 370 371 402 349 362 346 385 371 382 355 358 383 333 355 342 321 366 335 342 360 325 346 352 372 315 298 289 295 318 282 287 312 283 296 311 290 298 277 321 313 259 268 258 294 247 239 274 276 280 241 263 280 291 272 268 235 231 250 241 263 275 272 266 287 285 279 291 248 241 248 278 285 245 259 277 241 248 246 269 242 247 274 247 239 213 262 271 258 265 263 236 267 258 231 265 236 203 262 234 260 257 208 240 268 291 281 241 224 225 239 244 231 248 240 264 232 234 232 228 223 221 224 221 238 246 248 260 233 279 258 279 266 286 280 246 228 260 250 283 235 266 274 240 270 291 245 270 259 241 268 259 241 262 239 270 281 235 262 246 242 239 247 245 244 231 244 233 229 243 220 234 240 221 230 223 206 226 231 218 212 218 230 269 232 249 256 225 215 222 200 194 228 229 208 206 222 221 232 235 247 222 211 209 200 262 239 234 236 225 225 198 201 216 207 234 220 217 263 215 238 240 224 205 238 211 243 214 233 196 233 225 211 235 212 212 212 220 241 204 226 209 226 229 215 218 218 233 235 261 216 228 214 228 221 233 218 231 193 217 256 245 235 259 220 256 210 222 218 218 239 256 214 238 222 258 237 232 194 244 213 226 207 204 202 209 237 223 250 232 203 233 235 261 218 276 247 233 236 239 274 260 247 264 236 242 270 229 269 249 258 278 247 240 257 266 240 226 222 233 241 239 221 233 211 216 224 219 233 225 257 227 245 205 267 227 237 219 223 245 231 238 229 235 218 261 223 233 217 235 236 236 236 226 209 217 240 211 212 226 221 207 236 189 225 214 216 219 218 237 247 220 212 184 236 227 216 201 256 227 229 232 226 206 243 241 206 242 223 226 214 248 249 212 221 238 201 258 236 223 215 232 212 260 235 199 266 225 226 236 217 202 222 224 208 230 228 213 218 188 220 225 261 199 247 205 243 205 212 227 214 233 224 197 239 193 213 230 216 218 234 213 260 233 214 233 207 239 209 239 229 218 202 240 229 237 245 207 184 197 186 223 202 209 206 217 240 223 230 209 182 195 218 213 226 223 229 225 216 219 200 224 225 201 198 210 210 203 226 240 227 230 237 215 213 227 207 198 201 202 212 204 250 223 219 199 213 240 258 198 214 210 212 209 243 224 262 224 210 240 217 201 217 217 207 250 219 214 230 228 181 202 231 231 223 196 199 222 218 222 227 208 213 232 214 214 209 218 187 244 215 203 207 220 212 225 214 194 206 211 223 237 220 242 213 208 197 223 211 204 220 216 209 213 226 202 213 216 208 206 215 249 215 231 258 260 192 220 206 200 198 181 202 200 222 185 214 210 240 194 216 212 221 240 201 260 224 221 220 217 218 212 197 194 214 200 217 192 208 215 241 173 235 202 224 228 233 224 221 214 214 217 195 206 206 194 227 210 229 203 225 223 188 216 222 218 229 229 213 238 259 218 210 177 217 215 210 212 224 226 193 222 204 215 215 208 191 183 172 202 201 215 229 208 184 210 205 219 209 218 174 213 230 205 200 249 211 216 226 233 194 207 224 229 209 212 196 221 223 209 221 225 233 206 233 205 257 213 224 217 197 238 224 200 222 217 210 220 209 219 197 224 216 219 209 240 235 206 238 217 224 216 206 225 210 201 209 191 225 247 215 260 227 213 179 213 222 227 221 215 207 221 218 213 207 220 194 247 217 232 202 249 233 234 231 196 203 219 235 202 207 227 196 237 245 258 276 225 227 242 248 240 271 280 273 250 258 279 275 280 262 296 309 319 320 299 326 340 326 328 326 341 369 314 328 316 351 337 307 317 283 296 291 303 286 274 328 315 295 301 289 263 297 299 286 327 247 293 320 282 296 292 314 286 307 242 270 247 297 271 286 279 291 288 221 258 232 269 217 245 238 238 236 212 242 235 250 242 229 240 225 242 262 221 215 237 213 245 225 210 204 200 215 213 232 231 239 207 242 238 207 219 219 184 219 200 233 224 228 222 210 235 223 190 216 226 226 214 261 209 236 211 244 196 210 201 220 244 221 208 215 242 239 230 245 224 249 264 268 277 273 271 273 262 287 257 320 283 284 282 274 311 310 294 273 295 331 302 328 318 316 336 362 356 361 341 365 350 372 353 369 364 340 351 337 310 340 304 327 327 308 310 309 308 363 314 281 339 278 304 313 328 291 291 287 298 340 338 317 301 283 284 297 291 275 272 280 265 240 235 237 244 243 249 270 248 256 248 185 221 238 234 209 214 206 239 233 226 243 219 200 226 213 235 196 224 223 199 247 219 239 211 229 201 216 237 228 176 189 193 230 186 211 209 198 218 263 220 232 232 202 229 184 190 202 191 211 214 216 215 212 192 209 214 195 207 199 208 206 217 187 199 240 199 212 185 199 211 206 198 194 237 230 200 192 196 218 230 217 213 178 203 178 224 206 215 203 227 198 191 195 219 188 204 194 182 196 225 178 218 185 193 211 184 196 199 224 187 207 192 202 230 229 210 227 199 203 205 181 208 202 200 211 203 205 213 235 219 224 215 191 228 234 178 231 229 230 215 221 219 219 209 222 215 195 220 206 179 193 212 188 188 210 222 198 210 211 231 231 224 210 217 216 177 185 200 199 226 212 222 205 212 198 212 190 188 200 218 159 192 229 202 209 189 180 219 202 228 185 204 196 218 211 228 212 211 217 225 214 207 190 230 230 191 216 202 216 225 216 185 216 207 197 179 201 218 222 196 207 224 214 196 222 217 210 212 211 199 212 201 218 201 208 194 242 215 209 222 213 206 200 189 191 231 240 202 248 202 203 219 194 215 220 204 219 226 234 268 205 219 206 202 163 192 192 209 195 203 208 213 217 230 246 199 229 225 188 213 212 201 227 213 231 195 201 192 226 226 219 219 193 191 218 194 235 201 229 221 207 186 199 223 198 231 206 219 198 207 192 205 224 208 210 212 218 196 197 213 225 232 224 206 219 188 193 229 206 235 199 200 200 210 191 188 203 218 188 190 205 220 238 205 205 199 203 185 209 205 180 209 211 217 212 199 203 205 207 218 216 203 188 207 171 222 218 239 200 205 208 207 193 192 202 193 202 190 178 223 200 209 203 221 203 199 205 211 208 181 193 189 204 217 190 212 201 213 198 200 210 204 227 218 212 213 208 207 204 205 187 234 228 202 203 203 224 177 246 217 208 219 204 215 204 228 200 225 203 248 231 187 235 180 219 215 267 214 220 259 211 231 236 236 209 228 207 215 218 228 229 227 244 245 221 227 226 199 229 214 229 214 245 223 217 232 230 200 271 227 210 239</counts>
			</dataPoints>
		</scan>
	</xrdMeasurement>
</xrdMeasurements>
