<?xml version="1.0"?>
<xrdMeasurements xmlns="http://www.xrdml.com/XRDMeasurement/2.3" xmlns:xsi="http://www.w3.org/2001/XMLSchema-instance" xsi:schemaLocation="http://www.xrdml.com/XRDMeasurement/2.3 http://www.xrdml.com/XRDMeasurement/2.3/XRDMeasurement.xsd" status="Completed" recordIdentifier="{DBDA9F6B-F0B7-442B-AAAD-2942C42C0CCB}">
	<comment>
		<entry/>
	</comment>
	<sample type="To be analyzed">
		<id>GPSS_Li1p73Mn0p81Nb0p04V0p15Cl4_122325_694ae824ae15af25ac372782</id>
		<name></name>
		<preparedBy></preparedBy>
	</sample>
	<xrdMeasurement measurementType="Scan" status="Completed" sampleMode="Reflection">
		<usedWavelength intended="K-Alpha 1">
			<kAlpha1 unit="Angstrom">1.5405980</kAlpha1>
			<kAlpha2 unit="Angstrom">1.5444260</kAlpha2>
			<kBeta unit="Angstrom">1.3922500</kBeta>
			<ratioKAlpha2KAlpha1>0.5000</ratioKAlpha2KAlpha1>
		</usedWavelength>
		<incidentBeamPath>
			<radius unit="mm">145.00</radius>
			<xRayTube id="1010048" name="Empyrean Cu LFF HR (9430 033 7310x)">
				<tension unit="kV">40.0</tension>
				<current unit="mA">15.0</current>
				<anodeMaterial>Cu</anodeMaterial>
				<focus type="Line">
					<length unit="mm">12.0</length>
					<width unit="mm">0.4</width>
					<takeOffAngle unit="deg">6.0</takeOffAngle>
				</focus>
			</xRayTube>
			<sollerSlit id="21010002" name="Soller slits 0.04 rad.">
				<opening unit="rad">0.0400</opening>
			</sollerSlit>
			<mask id="22031000" name="Fixed mask 13 mm">
				<width unit="mm">9.00</width>
			</mask>
			<divergenceSlit id="22120001" name="Divergence slit 1°" xsi:type="fixedDivergenceSlitType">
				<distanceToSample unit="mm">50.00</distanceToSample>
				<height unit="mm">1.52</height>
			</divergenceSlit>
		</incidentBeamPath>
		<sampleMovement xsi:type="spinningSampleMovementType">
			<spinnerRevolutionTime unit="seconds">1.0</spinnerRevolutionTime>
		</sampleMovement>
		<diffractedBeamPath>
			<radius unit="mm">145.00</radius>
			<antiScatterSlit id="22090040" name="AS slit 9 mm (PIXcel)" xsi:type="fixedAntiScatterSlitType">
				<height unit="mm">9.00</height>
			</antiScatterSlit>
			<sollerSlit id="21020003" name="Large Soller slits 0.04 rad.">
				<opening unit="rad">0.0400</opening>
			</sollerSlit>
			<filter id="20030001" name="Large beta-filter Nickel">
				<material>Ni</material>
				<thickness unit="mm">0.020</thickness>
			</filter>
			<detector id="7010019" name="PIXcel1D-Medipix3 detector" xsi:type="rtmsDetectorType">
				<phd unit="keV">
					<lowerLevel>4.02</lowerLevel>
					<upperLevel>11.27</upperLevel>
				</phd>
				<mode>Scanning</mode>
				<activeLength unit="deg">5.542</activeLength>
			</detector>
		</diffractedBeamPath>
		<scan appendNumber="0" mode="Continuous" scanAxis="Gonio" status="Completed">
			<header>
				<startTimeStamp>2025-12-25T13:41:03-08:00</startTimeStamp>
				<endTimeStamp>2025-12-25T13:49:10-08:00</endTimeStamp>
				<author>
					<name>AutomatedUser</name>
				</author>
				<source>
					<applicationSoftware version="1.7b (136)">PANalytical Aeris Instrument Suite</applicationSoftware>
					<instrumentControlSoftware version="3.2.00000000 20240306">AERIS</instrumentControlSoftware>
					<instrumentID>950485</instrumentID>
				</source>
			</header>
			<dataPoints>
				<positions axis="2Theta" unit="deg">
					<startPosition>10.00943322</startPosition>
					<endPosition>99.99442286</endPosition>
				</positions>
				<positions axis="Omega" unit="deg">
					<startPosition>5.00471661</startPosition>
					<endPosition>49.99721143</endPosition>
				</positions>
				<commonCountingTime unit="seconds">12.495</commonCountingTime>
				<counts unit="counts">3231 3090 3209 3191 3209 3151 3202 3177 3282 3145 3159 3184 3159 3182 3175 3195 3205 3171 3119 3070 3227 3243 3217 3274 3222 3284 3208 3192 3251 3367 3300 3285 3233 3273 3259 3259 3154 3277 3347 3200 3220 3254 3246 3314 3287 3330 3261 3310 3313 3269 3387 3190 3313 3297 3364 3322 3392 3327 3368 3408 3262 3304 3339 3343 3331 3349 3491 3467 3391 3462 3486 3399 3363 3378 3391 3462 3388 3655 3457 3445 3444 3353 3343 3474 3492 3471 3488 3517 3516 3709 3529 3472 3510 3523 3567 3585 3572 3460 3703 3527 3519 3484 3559 3548 3478 3536 3528 3434 3557 3398 3422 3698 3512 3557 3456 3612 3590 3620 3625 3576 3564 3533 3655 3537 3729 3554 3616 3497 3574 3509 3546 3554 3635 3533 3543 3544 3506 3614 3679 3572 3613 3594 3610 3635 3620 3603 3602 3532 3577 3612 3533 3697 3626 3596 3527 3662 3664 3574 3622 3740 3740 3710 3619 3697 3610 3641 3625 3629 3601 3701 3604 3529 3742 3724 3543 3598 3547 3558 3678 3658 3637 3591 3507 3653 3639 3642 3784 3498 3672 3686 3505 3569 3611 3608 3584 3469 3688 3583 3474 3525 3516 3582 3608 3520 3530 3431 3669 3611 3632 3624 3567 3469 3550 3414 3506 3506 3504 3575 3493 3609 3651 3476 3448 3453 3480 3543 3511 3533 3512 3416 3525 3453 3509 3537 3413 3497 3506 3412 3442 3459 3460 3364 3467 3415 3558 3435 3410 3457 3488 3306 3406 3482 3454 3485 3362 3485 3483 3470 3441 3438 3426 3358 3586 3291 3312 3434 3291 3399 3349 3380 3470 3472 3372 3384 3419 3383 3441 3326 3363 3299 3426 3478 3352 3390 3453 3258 3422 3366 3390 3435 3438 3444 3367 3321 3413 3409 3373 3346 3331 3403 3367 3424 3421 3444 3375 3384 3288 3399 3371 3556 3366 3362 3503 3493 3375 3446 3448 3502 3269 3454 3417 3499 3439 3508 3417 3377 3475 3420 3456 3355 3480 3547 3414 3460 3553 3444 3430 3474 3478 3528 3506 3442 3473 3539 3425 3461 3508 3475 3587 3476 3588 3562 3484 3567 3460 3421 3575 3430 3518 3475 3528 3590 3570 3646 3556 3430 3642 3384 3567 3666 3601 3594 3651 3566 3492 3622 3618 3627 3712 3599 3631 3657 3624 3506 3567 3705 3624 3595 3581 3605 3723 3618 3669 3676 3745 3635 3755 3721 3709 3747 3692 3712 3704 3700 3834 3888 3704 3905 3879 3790 3920 3875 3914 3948 3910 4004 3957 3921 3848 3801 3932 3981 4094 3977 4017 4070 3985 3972 4205 4204 4135 4169 4192 4195 4397 4349 4317 4360 4467 4322 4494 4482 4634 4539 4539 4528 4435 4589 4582 4481 4357 4457 4348 4219 4089 4057 3825 3816 3804 3690 3808 3730 3728 3611 3563 3549 3730 3678 3680 3663 3631 3635 3602 3530 3553 3597 3535 3589 3540 3555 3573 3476 3644 3623 3594 3558 3552 3624 3488 3576 3507 3607 3468 3669 3552 3487 3512 3517 3483 3446 3473 3466 3386 3349 3288 3462 3475 3407 3307 3350 3363 3327 3344 3318 3273 3330 3338 3301 3281 3247 3327 3338 3210 3264 3352 3263 3235 3279 3385 3232 3254 3183 3269 3283 3281 3248 3315 3216 3144 3193 3194 3110 3332 3133 3084 3242 3254 3231 3182 3122 3228 3217 3056 3077 3157 3226 3151 3160 3091 3101 3164 3069 3104 3095 3050 3119 3110 3061 3121 3097 3131 3027 3052 3061 3031 3056 3068 3116 3120 3015 3020 3088 3051 3023 3040 3077 3037 3061 3095 3031 3004 2910 3039 3046 3049 3094 2904 3062 2909 3051 3040 2967 2937 2971 3007 2906 2912 2813 2984 2941 2961 2889 2923 2917 3010 2899 2922 2943 3059 2924 2950 2851 2966 2932 2868 2859 2906 2977 2947 2917 2983 2903 2998 2874 2912 2956 2997 2885 2792 2934 2836 3069 2873 2942 2862 2919 2962 2876 2938 2905 2885 2943 2830 2930 2852 2883 2842 2818 2946 2859 2783 2895 2910 2848 2835 2862 2889 2839 2732 2805 2817 2747 2917 2877 2934 2899 2806 2766 2813 2797 2883 2923 2865 2812 2807 2870 2845 2821 2836 2837 2808 2916 2896 2787 2876 2780 2849 2762 2888 2826 2872 2806 2822 2795 2812 2821 2854 2877 2819 2872 2800 2763 2842 2854 2774 2794 2792 2837 2873 2863 2788 2755 2720 2747 2746 2705 2814 2790 2772 2709 2746 2827 2766 2713 2733 2750 2748 2825 2762 2721 2776 2720 2804 2854 2747 2774 2725 2765 2752 2802 2784 2678 2753 2657 2774 2792 2698 2776 2717 2749 2747 2738 2741 2677 2679 2753 2680 2666 2813 2677 2654 2684 2770 2590 2709 2690 2742 2681 2788 2692 2674 2700 2720 2607 2623 2774 2641 2757 2676 2724 2673 2633 2689 2706 2682 2692 2761 2661 2644 2709 2801 2546 2714 2666 2617 2715 2675 2643 2757 2678 2665 2642 2623 2670 2512 2605 2666 2635 2567 2711 2619 2655 2728 2617 2676 2651 2636 2555 2591 2542 2643 2639 2670 2642 2668 2548 2614 2670 2701 2570 2641 2641 2607 2599 2615 2605 2595 2650 2581 2626 2541 2544 2569 2581 2603 2464 2604 2579 2542 2498 2603 2575 2479 2451 2556 2575 2713 2625 2534 2599 2578 2580 2532 2488 2465 2534 2605 2533 2637 2536 2503 2491 2525 2498 2507 2633 2537 2497 2534 2520 2569 2553 2656 2429 2582 2559 2565 2561 2475 2438 2476 2503 2460 2545 2556 2451 2496 2473 2493 2414 2438 2473 2494 2481 2485 2458 2551 2512 2545 2530 2509 2501 2547 2463 2431 2401 2406 2503 2519 2457 2461 2397 2432 2452 2462 2407 2378 2367 2499 2508 2414 2376 2502 2442 2431 2486 2406 2325 2457 2514 2464 2451 2380 2404 2426 2467 2519 2400 2512 2404 2380 2506 2413 2382 2405 2352 2465 2463 2464 2453 2415 2457 2385 2294 2369 2352 2364 2376 2483 2483 2394 2455 2369 2370 2389 2290 2333 2437 2366 2464 2384 2420 2390 2381 2337 2396 2409 2424 2391 2431 2471 2349 2350 2377 2464 2472 2508 2424 2349 2504 2401 2462 2364 2411 2274 2434 2440 2481 2478 2368 2439 2404 2390 2369 2501 2435 2425 2440 2390 2398 2438 2387 2431 2418 2405 2402 2468 2525 2410 2407 2361 2454 2384 2458 2391 2477 2538 2346 2462 2432 2353 2404 2394 2489 2395 2467 2451 2428 2414 2406 2353 2378 2478 2384 2381 2386 2447 2491 2450 2333 2362 2455 2432 2330 2396 2448 2473 2436 2410 2482 2425 2392 2438 2402 2468 2347 2467 2398 2404 2379 2400 2438 2479 2379 2432 2409 2372 2435 2360 2395 2412 2366 2378 2440 2477 2449 2376 2352 2346 2358 2370 2387 2441 2326 2340 2376 2399 2408 2378 2524 2400 2352 2392 2320 2300 2321 2364 2314 2300 2276 2288 2313 2360 2295 2400 2366 2248 2352 2315 2314 2299 2327 2326 2238 2250 2320 2239 2191 2290 2278 2222 2313 2211 2249 2254 2356 2285 2244 2309 2204 2270 2238 2271 2243 2276 2297 2205 2178 2143 2258 2217 2173 2177 2157 2117 2227 2175 2152 2259 2195 2283 2136 2128 2126 2151 2181 2105 2120 2062 2140 2154 2094 2077 2120 2117 2118 2086 2145 2082 2060 2103 2078 2072 2047 2000 2044 2057 2023 2017 1962 2009 2048 1974 1970 2064 1882 2018 2023 2026 2081 2084 2029 1976 1972 1973 1979 2008 1938 2018 1942 1971 1974 1966 1903 1993 1963 1939 1961 1925 1910 2001 1850 2030 1853 1986 1956 1990 1913 1930 1946 1904 1916 1871 1975 1879 1892 1908 1794 1910 1880 1885 1859 1802 1869 1872 1914 1871 1941 1895 1795 1869 1830 1859 1732 1735 1830 1890 1851 1792 1865 1864 1853 1857 1756 1737 1832 1769 1847 1787 1777 1847 1765 1695 1704 1708 1817 1806 1825 1744 1798 1792 1763 1813 1715 1813 1788 1710 1787 1812 1869 1754 1786 1837 1749 1640 1776 1709 1792 1822 1771 1760 1777 1819 1750 1771 1762 1719 1730 1783 1729 1682 1680 1668 1702 1635 1707 1701 1697 1767 1761 1830 1818 1800 1714 1782 1698 1765 1728 1800 1678 1725 1656 1733 1639 1766 1751 1734 1728 1710 1709 1735 1731 1714 1764 1749 1805 1703 1668 1741 1735 1774 1785 1723 1714 1677 1634 1710 1640 1704 1689 1746 1739 1625 1716 1769 1661 1765 1770 1690 1751 1679 1657 1836 1744 1677 1755 1731 1634 1769 1671 1721 1724 1725 1749 1703 1750 1761 1736 1772 1699 1685 1707 1763 1715 1746 1707 1759 1721 1730 1827 1722 1676 1752 1738 1726 1808 1689 1743 1869 1811 1787 1704 1715 1764 1797 1673 1789 1707 1746 1638 1757 1683 1705 1725 1745 1811 1783 1711 1715 1747 1780 1750 1793 1746 1770 1716 1800 1780 1798 1787 1690 1729 1698 1705 1740 1775 1700 1741 1760 1724 1716 1721 1664 1720 1802 1799 1713 1700 1777 1666 1652 1808 1728 1653 1730 1732 1747 1690 1756 1692 1754 1703 1838 1717 1778 1707 1761 1735 1637 1701 1635 1756 1763 1733 1737 1692 1703 1655 1667 1697 1649 1694 1713 1655 1670 1705 1720 1658 1728 1672 1591 1611 1695 1641 1672 1720 1721 1688 1670 1733 1712 1701 1646 1587 1639 1609 1701 1617 1658 1744 1618 1700 1617 1614 1605 1632 1630 1584 1538 1618 1690 1605 1629 1600 1669 1686 1597 1578 1572 1602 1618 1665 1543 1530 1551 1614 1588 1596 1623 1587 1628 1612 1613 1502 1595 1551 1567 1606 1614 1526 1521 1572 1477 1599 1541 1526 1558 1502 1528 1491 1469 1495 1500 1500 1521 1514 1516 1560 1524 1473 1492 1492 1529 1547 1564 1491 1474 1549 1419 1542 1430 1506 1524 1496 1413 1567 1463 1436 1548 1435 1511 1420 1494 1457 1480 1449 1474 1385 1408 1385 1440 1390 1375 1448 1425 1368 1486 1447 1414 1487 1469 1417 1436 1457 1413 1495 1403 1472 1428 1417 1357 1405 1489 1451 1468 1514 1491 1487 1572 1458 1532 1555 1477 1524 1569 1600 1539 1571 1619 1659 1623 1634 1628 1640 1642 1625 1685 1776 1649 1703 1727 1715 1789 1766 1839 1858 1901 1910 1930 1946 1940 1964 2033 2068 2085 2148 2125 2140 2115 2125 2133 2017 2019 1955 1895 1822 1757 1739 1706 1609 1586 1551 1480 1395 1393 1376 1418 1396 1392 1352 1390 1370 1319 1345 1316 1350 1314 1351 1309 1383 1290 1280 1300 1293 1354 1328 1228 1264 1355 1229 1243 1224 1302 1307 1339 1190 1221 1277 1314 1306 1276 1249 1319 1279 1318 1244 1278 1304 1258 1231 1276 1330 1271 1269 1288 1284 1261 1271 1375 1305 1289 1407 1354 1389 1461 1440 1433 1527 1535 1527 1553 1513 1655 1610 1559 1683 1671 1675 1708 1681 1728 1705 1721 1707 1749 1858 1900 1865 1910 2074 2131 2167 2311 2201 2330 2473 2378 2559 2645 2627 2784 2852 2793 2849 2904 2892 2915 2755 2963 2728 2775 2647 2361 2358 2178 2149 1981 1833 1805 1702 1673 1471 1554 1419 1442 1479 1406 1368 1406 1364 1406 1405 1382 1451 1473 1537 1520 1545 1486 1576 1626 1667 1696 1629 1578 1622 1578 1596 1531 1516 1444 1583 1440 1487 1450 1436 1462 1414 1474 1308 1427 1324 1372 1228 1284 1240 1205 1240 1226 1198 1248 1134 1150 1160 1100 1159 1156 1194 1163 1078 1101 1130 1138 1195 1075 1120 1138 1086 1119 1066 1116 1116 1086 1102 1133 1164 1168 1121 1104 1097 1101 1089 1118 1108 1086 1110 1064 1061 1050 1127 1138 1102 1105 1165 1128 1059 1109 1081 1072 1084 1051 1082 1022 1055 1066 1110 1098 1097 1079 1044 1104 1121 1112 1122 1053 1117 1088 1057 1083 1080 1090 1007 1044 1003 1045 1048 1098 1077 1080 1069 1066 979 1043 1067 1055 1075 1089 1096 1016 1079 1032 1020 1107 1050 1080 1081 1077 1083 1053 1049 1038 1051 1086 1058 1003 1023 1134 1038 1043 1092 962 1023 1113 1047 994 1013 1002 967 1030 1056 1042 1030 1051 1054 1000 1057 1037 963 1066 1004 1091 986 1084 1029 1048 1083 1037 1079 996 1039 977 1079 1049 1022 1040 1051 973 1032 1051 1064 1079 1046 1063 1062 1064 1033 1103 1070 999 1016 1067 1032 1082 1076 1098 1019 1049 1072 1044 1099 1098 1082 1039 1075 1067 1107 1045 1128 1125 1122 1131 1085 1140 1109 1062 1114 1141 1057 1167 1061 1088 1068 1068 1181 1070 1076 1112 1060 1109 1021 1092 1062 1079 1076 1033 1035 1066 1120 1104 1061 1042 1067 1102 1093 1048 1123 1119 1046 1040 1051 1077 1028 1064 1053 1012 982 1085 1036 1052 1023 960 1052 986 989 1041 1000 1072 1003 1044 1036 1007 1037 1047 1073 1059 998 1038 1051 1018 1078 1047 1031 988 1081 1047 1018 991 1038 1082 1035 1019 1058 1068 980 1041 1050 1004 1007 1020 1034 1050 1003 1049 1023 999 1024 1054 1111 1068 991 1030 1118 1056 990 1052 1054 1062 1089 1067 1065 1043 1091 1046 1078 1054 1107 1064 1081 1060 1000 1060 1084 1075 1112 1107 1039 1121 1084 1084 1169 1138 1107 1161 1205 1178 1170 1142 1150 1204 1313 1280 1381 1355 1476 1577 1565 1676 1709 1847 2000 2053 2116 2219 2365 2312 2492 2563 2543 2638 2570 2665 2796 2741 2813 2931 2958 2955 3055 3255 3476 3626 3783 3983 4067 4307 4665 4790 5069 5273 5703 5950 6183 6104 6347 6648 6972 6963 7029 7203 6904 6789 6434 6075 5600 5489 4907 4653 4109 3752 3579 3208 3012 2651 2433 2260 2099 1816 1807 1715 1651 1593 1543 1584 1546 1561 1527 1534 1495 1434 1465 1473 1458 1412 1411 1517 1372 1463 1353 1364 1437 1380 1379 1359 1290 1290 1361 1333 1306 1301 1299 1312 1306 1282 1310 1286 1282 1209 1217 1198 1157 1118 1186 1135 1066 1070 1125 1117 1149 1089 1061 1061 1107 1116 1071 1069 1066 1043 1062 1035 1015 985 1054 956 1056 1020 963 1022 992 1017 994 980 939 1064 951 974 978 969 964 1001 995 1025 1013 991 991 1011 1029 936 951 926 961 963 974 993 987 964 999 912 979 921 930 942 1009 981 952 1024 988 886 896 996 926 908 992 959 893 927 951 963 991 958 972 995 960 956 955 942 931 1004 861 904 941 979 983 968 944 926 925 924 986 871 884 977 893 1025 910 961 960 939 958 891 931 913 938 986 969 1000 863 949 942 951 953 957 895 928 893 904 923 980 943 921 931 923 932 948 952 903 905 962 957 933 925 959 953 893 928 932 946 928 943 917 922 899 907 874 889 925 971 899 896 929 912 921 926 890 938 887 868 888 910 863 891 948 912 963 925 931 919 940 898 868 910 909 873 836 934 907 927 951 905 879 955 896 920 877 872 929 906 916 910 924 906 927 893 900 879 947 926 930 891 895 926 896 911 1003 975 943 932 947 912 928 936 946 933 996 888 954 943 960 948 980 1017 934 1023 912 893 945 960 980 904 1002 902 945 913 925 900 909 850 899 943 899 870 860 884 814 879 914 904 865 870 927 832 858 885 867 866 914 875 929 849 897 843 838 865 882 969 942 921 877 875 936 825 901 907 888 828 919 851 810 856 922 856 857 908 938 837 872 839 843 855 892 842 884 802 841 882 913 829 857 890 838 851 877 822 842 851 868 845 813 863 822 842 878 854 831 830 850 832 844 871 899 798 830 807 842 869 862 850 814 837 851 822 824 868 892 853 880 896 860 835 879 910 845 885 841 861 828 817 831 837 841 840 833 815 829 891 861 852 874 816 863 824 815 810 827 880 841 832 893 856 844 841 842 825 831 860 842 818 766 860 788 861 810 828 861 825 879 784 847 823 866 841 877 850 861 824 849 841 812 806 874 791 864 814 770 827 888 840 830 815 810 791 829 793 798 862 847 845 823 847 882 840 833 818 846 798 838 882 842 765 826 813 801 824 799 858 867 833 861 805 863 800 822 853 781 876 819 838 810 823 798 837 861 855 810 867 890 831 796 853 804 823 802 864 858 827 837 823 881 802 784 855 880 848 842 877 829 829 835 774 832 785 830 825 818 813 822 860 833 854 792 870 810 811 822 796 876 806 877 808 846 841 853 767 776 816 826 809 808 781 830 839 840 799 825 778 791 804 847 825 830 879 850 854 824 799 822 827 817 811 873 871 779 789 806 823 815 791 849 901 869 829 816 809 833 871 811 772 847 808 834 815 811 819 881 847 881 828 871 846 826 828 797 801 821 808 827 833 832 810 871 857 827 856 840 756 826 814 858 771 799 791 810 841 810 843 831 794 829 807 792 799 831 821 806 818 796 822 840 774 809 835 841 822 808 859 822 828 842 810 824 767 770 826 838 814 799 855 860 858 757 823 808 800 770 821 856 841 821 842 857 819 824 833 822 833 818 850 786 773 830 797 795 797 779 769 847 785 823 844 791 754 792 850 827 849 770 820 843 828 793 851 809 817 809 804 853 822 816 838 792 809 788 804 781 839 859 811 836 847 885 806 853 792 820 798 795 799 788 863 793 810 833 788 783 791 796 818 810 837 780 772 808 798 837 799 845 812 794 795 794 787 796 829 853 818 801 822 768 848 824 821 814 827 811 733 794 812 882 789 837 805 796 817 833 794 787 812 806 778 817 801 806 807 814 845 791 858 825 837 798 783 813 853 810 840 805 779 832 801 835 781 785 847 815 818 812 778 836 832 833 820 802 796 776 831 829 782 825 814 753 798 733 783 817 789 829 772 835 821 878 851 849 776 834 807 815 799 799 824 786 866 822 785 850 798 795 848 784 827 843 776 797 839 839 807 847 801 853 819 864 806 832 787 801 769 783 795 806 810 855 769 817 797 822 833 834 786 827 757 794 753 820 795 790 840 767 832 855 823 836 845 829 816 831 832 800 815 815 890 861 822 822 794 831 818 857 786 843 821 831 789 840 846 845 880 881 925 896 918 946 896 879 927 928 978 938 1011 905 997 1019 979 997 1001 1013 1064 1018 1062 1026 1150 1102 1103 1132 1236 1238 1241 1197 1290 1274 1283 1394 1373 1365 1374 1435 1437 1441 1459 1443 1356 1332 1257 1186 1198 1178 1192 1102 1156 1075 1061 1019 1056 962 1018 949 995 908 892 927 829 859 805 782 873 840 898 861 793 820 821 839 850 824 815 804 809 739 827 857 793 818 757 795 812 792 831 830 755 860 809 872 795 809 813 821 795 828 821 798 783 828 777 794 843 801 770 813 851 850 786 808 842 799 825 801 818 797 759 812 854 782 855 848 821 802 871 866 809 856 830 805 781 769 768 820 797 775 797 793 755 800 763 783 767 757 772 821 808 796 767 781 818 802 724 829 759 818 809 839 811 809 802 740 790 755 780 795 786 824 825 755 789 791 775 738 835 794 818 761 879 759 770 775 798 778 827 786 789 806 777 785 791 766 794 790 805 768 791 794 719 792 802 775 756 784 714 759 795 779 804 765 765 776 831 746 774 787 794 790 790 783 792 767 822 761 773 756 761 805 812 779 770 754 810 792 784 773 763 801 827 786 794 785 772 823 764 780 775 798 795 793 802 820 797 820 806 837 798 844 808 863 811 833 803 848 792 809 840 814 858 777 779 795 812 784 784 824 831 797 788 774 778 801 794 843 846 825 781 810 807 757 758 813 829 809 809 766 811 804 790 787 804 795 820 831 828 782 829 852 811 820 837 828 847 830 873 783 793 815 755 833 739 794 827 806 802 821 782 807 761 805 794 827 772 850 826 827 778 830 842 787 795 798 812 823 800 835 854 807 852 868 813 826 798 824 843 853 896 819 852 871 802 862 824 835 863 820 848 852 899 859 906 904 944 855 901 934 956 947 1035 1050 1055 1066 1083 1066 1185 1149 1301 1250 1353 1423 1496 1531 1647 1711 1765 1785 1836 1837 2007 1994 2072 2101 2315 2342 2321 2555 2598 2660 2787 2774 2904 2980 3139 3309 3459 3470 3639 3812 3967 3962 4181 4107 4209 4301 4339 4278 4241 4014 3787 3736 3400 3257 3135 2849 2635 2693 2542 2443 2261 2341 2078 1885 1728 1633 1515 1411 1197 1184 1164 1137 1111 1041 1078 1030 978 1059 1018 954 968 959 944 902 925 960 887 937 906 948 922 930 842 873 907 900 895 876 839 918 949 917 881 866 920 934 945 987 998 914 987 942 931 943 999 920 988 1009 966 1040 1034 959 961 966 1010 984 964 993 939 977 988 1020 997 984 976 984 947 960 910 949 897 914 848 902 870 968 890 904 845 866 901 873 881 867 828 908 844 902 788 771 891 850 806 859 806 813 835 855 804 810 814 820 826 819 739 779 806 831 837 802 800 823 760 869 748 732 776 769 782 813 754 820 767 786 784 784 802 794 769 778 768 811 778 843 798 805 785 762 791 781 845 789 749 798 832 784 757 772 790 746 767 797 846 752 785 760 803 811 788 815 794 808 848 851 835 902 791 869 842 804 844 848 838 855 879 836 897 889 910 925 927 943 899 953 929 984 942 969 983 1046 1038 1073 1055 1058 1114 1124 1092 1044 1134 1146 1186 1117 1098 1095 1093 1032 1023 1007 1016 973 1019 930 903 897 876 903 928 849 832 796 819 782 790 796 770 838 769 747 821 784 798 763 728 793 754 742 697 748 797 741 764 791 737 758 749 748 746 773 797 772 760 726 746 745 748 697 726 742 701 775 787 784 757 773 748 792 781 725 767 766 746 665 732 763 744 721 735 729 775 751 765 780 720 746 736 769 739 719 749 781 773 711 764 765 702 753 736 762 742 732 751 759 729 753 703 765 720 728 747 755 729 758 784 723 831 764 764 741 771 737 709 712 735 736 763 778 766 771 726 749 712 721 772 770 740 782 745 724 813 750 755 772 712 775 735 745 770 714 724 735 731 734 721 751 747 743 744 716 745 774 742 741 764 754 697 693 726 736 720 741 744 762 714 731 722 746 694 743 781 690 725 716 758 755 767 736 775 711 759 726 752 719 750 691 727 766 793 715 714 739 721 731 716 757 751 781 725 757 752 690 745 739 741 794 729 777 739 735 774 701 775 730 659 709 754 712 714 705 743 752 750 699 735 696 748 746 735 699 735 663 710 752 694 721 722 729 723 744 687 723 740 715 704 745 734 727 722 695 735 720 725 729 743 720 696 683 761 695 722 741 731 734 728 724 698 721 717 744 742 729 730 713 726 696 718 743 717 712 735 742 694 690 699 707 703 718 711 767 738 704 702 713 721 763 694 677 704 687 698 725 718 710 704 726 723 702 738 723 780 714 731 763 703 700 686 730 717 719 746 747 739 711 707 689 724 710 675 658 693 722 719 719 755 712 742 722 758 734 775 680 727 734 731 715 736 691 690 712 673 736 713 730 695 719 718 714 749 701 752 733 696 683 773 668 747 709 699 771 722 769 731 701 725 712 668 721 718 666 714 732 708 724 695 721 686 766 758 732 729 760 702 756 756 735 711 766 697 653 694 702 711 677 700 719 706 761 644 716 718 686 666 711 715 705 749 687 713 755 716 701 706 735 744 715 718 756 681 711 704 718 745 712 737 728 673 657 715 691 702 685 709 720 770 679 751 720 707 701 709 755 747 680 723 675 739 723 745 664 747 716 710 675 714 691 689 725 706 720 716 736 746 693 697 686 712 699 727 734 728 750 699 724 725 699 723 708 701 736 742 704 745 736 754 743 726 752 722 735 715 696 646 710 708 811 718 689 709 707 728 709 714 747 722 733 709 747 721 751 758 749 689 707 766 726 715 728 700 739 709 808 757 760 795 790 775 716 735 702 773 833 801 818 840 793 825 801 768 828 698 843 741 828 745 761 812 775 764 757 799 793 788 765 751 767 776 745 727 717 753 738 740 802 803 729 760 776 818 734 771 731 818 800 774 856 862 869 838 841 763 791 834 888 838 884 804 896 908 905 948 977 987 1027 950 1011 1022 1059 1109 1043 1125 1103 1084 1204 1127 1117 1139 1113 1202 1111 1065 1116 1052 1059 996 1043 994 916 959 981 977 992 925 908 872 850 842 890 812 760 828 787 803 769 742 742 781 707 716 749 782 766 723 703 742 714 713 705 720 733 739 683 769 733 745 693 770 752 721 675 674 717 680 724 748 722 729 727 682 704 763 744 719 740 725 732 770 715 752 714 775 758 773 743 743 717 671 750 701 796 779 718 740 740 737 773 799 816 813 772 781 754 796 776 821 791 794 800 742 844 839 764 831 793 762 795 819 728 792 723 791 751 759 756 752 754 732 753 696 727 734 728 726 692 761 709 703 685 751 743 722 734 745 717 759 714 688 722 688 746 707 728 735 763 781 720 722 734 672 718 723 713 662 687 753 717 735 697 750 691 706 667 701 707 722 728 717 690 678 710 736 779 705 681 722 789 719 733 737 724 722 708 708 748 666 765 716 702 786 744 760 745 738 734 682 682 686 707 703 729 723 676 696 754 717 718 728 733 766 771 761 729 731 775 721 735 697 773 796 749 736 831 776 799 749 762 817 823 850 886 817 864 861 878 920 929 891 975 955 985 1042 988 1050 1038 1129 1201 1192 1226 1300 1309 1389 1399 1454 1435 1505 1466 1501 1555 1542 1548 1589 1550 1593 1478 1444 1457 1426 1363 1360 1306 1220 1202 1122 1114 1139 1203 1146 1104 1089 1085 1019 967 955 895 908 953 846 845 837 817 822 807 813 802 811 751 760 749 754 750 786 778 738 723 764 762 759 745 753 767 727 721 687 750 700 705 740 723 729 726 695 698 722 731 753 657 749 677 709 733 717 735 751 711 756 710 697 682 737 712 723 736 734 687 711 728 722 745 709 691 754 737 742 697 765 775 749 798 749 816 772 736 736 737 794 802 782 785 775 784 739 826 750 826 756 816 743 797 757 748 749 715 764 793 750 748 729 751 681 737 766 697 733 750 769 738 644 709 705 717 680 721 778 697 703 733 710 699 691 686 721 710 778 698 728 704 739 756 730 751 729 775 736 746 770 755 727 764 807 810 764 742 763 777 731 718 751 783 838 793 802 836 799 825 861 902 861 900 940 873 945 915 923 936 925 885 883 917 928 828 878 846 864 872 855 762 756 834 810 808 841 814 825 810 826 731 744 695 769 717 737 706 714 752 710 763 744 689 774 650 647 707 723 733 738 708 708 713 696 703 702 705 683 674 702 668 713 719 715 692 667 699 691 708 702 712 688 688 675 711 716 677 727 692 704 675 678 688 737 691 713 702 702 702 698 696 677 736 666 664 710 686 677 708 687 701 719 656 696 712 653 747 692 691 705 715 625 687 740 685 687 708 653 676 676 735 708 674 723 714 680 725 642 646 722 699 675 687 680 664 676 704 673 707 702 681 701 679 664 647 701 709 701 644 714 705 704 687 728 699 686 707 666 675 675 718 684 679 699 654 715 710 682 672 685 652 679 693 679 642 704 679 640 668 670 683 755 681 628 673 684 693 675 707 688 700 646 718 668 667 714 679 669 716 685 672 692 644 673 663 684 683 720 669 701 650 722 685 712 677 672 666 637 686 762 657 690 643 667 668 701 663 686 683 733 694 694 684 713 687 645 678 656 674 684 667 593 698 700 683 697 700 668 679 680 647 624 685 638 666 632 668 661 693 676 687 661 709 680 697 673 673 747 673 680 709 701 691 649 699 740 678 689 693 736 679 660 679 651 666 691 691 636 707 656 659 644 689 648 666 653 671 665 670 656 646 705 701 676 738 703 719 667 660 697 702 652 687 648 687 665 734 669 675 655 625 702 698 688 686 636 661 680 702 712 643 715 692 616 669 635 650 662 715 734 679 666 635 671 680 684 671 685 695 658 682 659 712 673 673 679 660 696 698 710 665 650 645 642 708 638 641 645 645 686 693 642 688 701 666 683 638 640 710 696 671 657 691 702 637 672 616 688 614 703 663 704 651 674 731 693 640 643 675 645 686 649 678 668 717 680 701 690 674 712 688 697 707 704 650 648 687 689 652 669 667 679 688 691 689 677 633 698 702 643 646 674 647 706 666 684 662 669 661 618 651 669 699 697 652 656 683 666 677 686 706 633 684 698 660 660 712 708 644 688 684 651 659 697 647 695 713 689 701 657 709 695 665 647 688 706 687 674 761 722 664 699 698 693 734 708 698 754 706 722 722 726 732 754 725 794 792 778 812 764 794 776 770 808 771 836 760 803 770 789 858 799 768 787 749 798 820 772 750 770 778 727 734 751 730 786 732 671 729 709 726 689 728 705 710 697 659 707 720 663 704 692 631 703 709 641 662 673 698 735 648 688 654 706 704 656 669 701 729 662 754 667 736 664 735 680 702 719 675 682 686 672 724 724 714 709 704 684 699 715 676 690 708 674 683 747 665 692 665 703 692 650 625 665 704 696 645 725 684 654 640 654 670 694 676 732 657 646 652 683 655 732 651 693 722 680 709 706 709 700 635 639 669 706 684 695 696 698 697 680 707 713 698 651 733 680 688 706 709 720 635 637 672 633 655 646 654 644 682 695 668 653 689 702 681 634 687 694 720 673 659 688 686 622 693 666 675 669 670 633 679 696 714 722 712 680 616 711 663 671 669 701 660 679 703 697 624 656 711 689 662 649 721 687 680 683 660 676 680 672 677 675 671 666 648 629 650 645 644 692 689 654 634 720 691 701 725 642 716 693 667 643 672 675 628 676 701 689 695 748 679 687 649 628 715 679 725 669 667 693 724 648 740 604 708 673 678 709 701 665 694 697 694 672 697 695 701 693 703 701 655 695 691 689 685 655 725 711 674 736 652 722 761 750 736 721 749 772 820 764 780 735 788 762 790 826 857 810 843 827 823 827 813 872 865 893 910 899 932 902 997 1022 935 1022 1010 1023 1011 1072 1046 1055 1020 1021 1018 989 974 929 936 888 834 883 893 876 918 843 927 840 873 835 886 889 820 814 871 797 744 740 754 769 737 709 737 735 700 716 722 708 708 705 718 730 700 700 731 688 699 726 678 713 738 677 734 698 724 727 674 664 656 661 692 701 676 704 698 677 688 685 727 670 720 688 701 663 716 732 713 687 682 690 696 685 691 637 677 702 746 664 711 691 681 663 696 727 684 695 718 697 634 703 655 734 694 673 708 660 695 637 688 686 727 691 686 684 705 655 681 702 668 725 697 683 674 697 712 673 701 680 702 702 674 710 665 671 667 621 673 655 690 669 722 693 678 687 690 739 693 651 698 703 680 646 679 653 682 683 668 698 687 683 666 643 651 704 693 669 695 649 736 729 652 672 677 692 686 700 651 689 706 681 674 704 703 644 684 621 671 697 632 666 713 704 684 659 683 744 648 678 729 638 703 665 690 668 659 689 666 680 678 742 716 613 734 657 667 705 623 696 657 696 636 687 666 688 653 696 671 636 690 696 646 678 687 694 745 680 652 682 724 658 677 685 614 678 697 619 624 713 698 683 654 708 683 680 659 693 657 685 677 666 683 718 647 721 690 687 695 614 628 704 699 652 672 643 653 649 664 635 694 602 655 662 707 638 684 649 643 705 680 685 686 646 686 671 645 640 663 655 647 651 590 687 643 678 659 709 666 721 702 684 641 686 701 674 626 671 675 647 676 673 642 693 658 685 712 675 679 693 707 656 711 692 652 661 660 655 665 676 703 667 658 651 711 704 648 669 679 672 657 669 667 683 665 633 660 617 695 658 698 621 686 647 690 659 694 672 696 662 660 655 663 706 706 662 646 717 641 645 651 680 652 692 691 675 643 699 690 716 674 690 686 668 687 683 658 685 701 673 691 643 639 722 677 675 645 675 708 720 665 665 683 681 690 693 652 727 706 701 644 692 608 661 677 652 701 657 675 724 684 671 646 679 694 687 698 692 666 712 659 673 749 663 675 679 709 641 612 686 656 680 671 713 703 682 683 692 698 671 681 730 596 662 649 662 649 667 685 673 687 735 678 660 627 697 695 700 642 701 659 712 668 704 711 692 704 677 679 674 668 649 709 677 664 673 671 669 699 748 668 632 657 674 728 683 681 686 675 692 696 671 692 691 684 652 678 707 689 630 673 676 662 655 678 728 709 661 705 720 664 684 702 681 696 606 674 699 697 683 674 661 690 637 697 661 632 682 675 701 626 666 679 686 706 671 636 673 721 690 734 708 724 671 724 685 745 667 699 689 727 653 676 714 685 698 672 692 651 683 665 692 695 682 644 700 698 724 678 657 657 683 669 646 641 691 661 723 669 634 711 733 697 667 702 684 718 722 712 722 671 757 725 723 663 693 689 722 741 695 728 736 706 696 729 703 703 711 681 716 718 790 762 715 692 715 761 786 745 735 782 763 827 763 768 746 804 805 777 807 757 820 788 735 747 786 764 767 762 735 745 756 772 745 686 761 711 719 790 787 726 796 772 792 744 770 747 730 783 756 770 745 786 749 770 716 786 742 828 749 719 761 766 813 789 790 807 739 807 759 817 837 767 849 797 767 783 836 806 819 794 782 786 785 747 802 717 742 737 763 786 763 770 723 728 785 799 752 748 738 732 725 733 765 676 714 748 711 701 722 724 741 728 723 704 750 647 707 689 711 726 709 702 705 714 714 652 697 693 728 673 698 670 704 705 685 758 642 707 657 704 651 719 662 737 664 703 704 722 689 780 663 713 677 727 687 689 662 682 716 708 698 701 687 693 681 706 706 715 685 667 690 705 711 698 677 721 685 704 703 705 739 698 688 715 682 747 706 681 718 704 699 747 731 715 676 719 702 706 771 722 707 673 726 679 694 686 652 751 682 764 747 689 715 705 735 709 755 750 700 729 691 754 757 768 727 699 710 710 710 725 715 721 779 742 685 735 703 754 676 769 723 736 728 736 708 771 726 728 759 726 705 714 745 736 782 733 758 756 763 740 717 747 760 754 727 770 742 758 764 771 802 815 795 810 786 830 793 900 861 861 886 864 891 869 939 942 998 945 1031 1022 1000 1106 1109 1131 1145 1197 1201 1194 1300 1224 1266 1317 1310 1356 1390 1417 1382 1427 1439 1478 1500 1368 1337 1300 1222 1208 1211 1118 1181 1166 1165 1093 1129 1122 1080 1130 1076 1099 1093 1062 1069 1059 1067 981 1039 1014 982 938 972 921 943 834 853 925 826 824 853 817 784 810 800 788 750 795 788 805 761 809 759 728 718 683 693 744 723 790 755 771 760 746 696 723 713 714 733 726 729 717 733 746 705 710 691 737 742 726 691 771 703 769 749 755 674 672 724 738 669 696 734 703 693 649 721 717 716 764 678 695 697 695 737 698 750 718 741 734 700 716 696 684 737 726 715 652 729 719 730 762 693 694 684 766 717 760 707 709 720 713 692 688 762 759 697 685 705 757 719 723 753 732 745 754 739 748 741 791 727 777 815 770 751 756 769 735 783 785 760 760 801 774 824 772 770 781 732 815 781 835 808 802 816 847 801 776 759 761 749 744 780 825 763 767 783 786 782 772 755 773 785 773 771 778 769 783 763 791 726 766 763 806 730 743 727 701 693 715 719 747 735 677 752 707 708 654 661 720 702 730 702 674 716 701 725 664 684 701 712 674 747 711 740 662 668 718 677 711 670 727 715 654 667 669 685 718 727 722 697 682 723 783 679 685 676 725 701 697 652 657 754 696 737 694 692 710 713 669 700 666 704 703 708 687 713 704 679 702 715 707 694 684 698 757 687 697 662 694 672 679 731 714 705 687 677 701 714 742 678 744 692 670 695 665 668 691 703 729 703 629 728 703 682 718 635 689 680 724 719 729 683 751 699 746 688 670 711 649 705 684 706 689 686 714 658 719 745 725 658 697 727 699 667 683 705 676 707 669 703 682 692 653 680 712 620 719 725 672 692 680 743 701 718 747 672 671 663 673 710 701 713 715 693 684 716 655 693 718 665 682 675 664 686 690 691 761 662 692 711 704 648 645 705 711 702 674 700 704 671 663 714 730 711 709 639 708 677 710 670 713 692 715 655 647 711 684 701 717 697 696 661 704 636 722 682 723 668 663 687 679 677 720 670 644 734 711 689 724 701 672 676 694 755 680 721 708 667 694 701 668 689 675 685 666 758 719 686 705 657 697 691 641 717 661 688 623 671 658 683 726 719 643 719 714 681 661 651 640 669 665 697 684 691 712 650 687 645 673 668 673 695 702 721 668 692 691 660 689 695 688 698 722 692 684 716 705 689 670 645 696 650 731 706 664 682 701 697 678 714 675 700 679 715 687 712 668 648 740 655 635 693 646 696 669 696 662 693 696 691 684 749 708 679 701 643 667 676 702 665 685 732 668 688 672 686 743 692 697 658 700 679 693 657 722 708 702 686 711 656 642 689 733 699 718 705 713 700 723 677 689 679 719 719 717 688 672 697 713 685 700 698 711 745 697 750 670 662 717 691 692 775 701 719 692 748 710 741 743 697 747 723 704 754 689 745 753 771 797 787 744 741 766 776 746 749 818 752 770 740 757 730 737 754 725 757 755 685 742 719 726 699 742 754 768 709 714 765 701 745 715 741 749 739 733 717 682 703 715 696 746 687 724 749 667 733 662 672 695 714 679 713 705 681 684 658 670 714 669 720 678 698 698 695 699 699 662 731 672 682 700 695 668 702 683 698 650 742 729 717 711 626 677 665 712 683 662 722 686 683 703 721 654 684 688 700 684 695 619 753 635 652 718 731 664 682 712 694 712 703 718 698 711 673 676 720 713 710 692 714 723 673 692 678 748 712 694 747 673 689 656 670 698 685 674 667 698 672 713 709 685 691 676 697 686 682 693 707 672 709 739 693 700 640 668 646 657 677 658 707 719 720 697 691 685 661 653 720 660 672 714 715 664 652 679 698 737 646 657 717 748 738 717 665 638 750 707 677 667 694 714 649 711 715 662 731 699 675 670 714 682 679 715 704 723 728 673 676 663 684 722 727 681 721 710 691 711 685 681 678 664 699 736 741 710 696 747 712 713 664 691 701 756 709 696 684 770 711 693 707 714 698 718 671 709 755 693 734 716 717 701 730 736 760 779 765 747 787 781 744 782 788 794 809 834 831 849 826 865 852 815 879 899 898 931 945 928 948 940 989 1039 1051 952 1061 1069 1057 1121 1111 1166 1137 1187 1202 1213 1261 1203 1132 1146 1155 1122 1161 1115 1067 1032 1046 1036 998 970 961 961 941 998 946 961 974 944 968 937 899 997 940 943 990 915 925 927 876 909 871 874 916 837 859 864 798 847 814 770 777 761 692 745 722 705 813 808 765 761 759 769 776 768 713 706 775 740 781 686 683 736 743 703 693 712 716 714 733 717 711 724 722 736 701 721 720 761 737 768 730 738 727 706 687 730 723 725 698 684 741 716 735 693 782 716 773 671 726 712 705 722 723 689 705 644 718 686 694 722 706 731 738 693 701 687 722 664 722 635 694 693 684 720 754 675 699 665 708 729 744 716 695 713 673 729 722 733 676 780 717 750 709 715 763 678 710 698 726 737 704 739 676 728 745 734 715 754 729 728 766 731 695 742 727 742 758 778 755 715 725 744 794 681 756 745 767 728 738 751 737 757 686 725 702 746 740 713 738 720 744 786 712 706 749 750 730 812 722 721 745 767 737 744 702 743 735 704 733 714 747 729 701 789 716 698 699 673 689 742 677 640 691 683 688 675 727 726 692 687 703 677 654 770 717 706 718 671 716 705 708 696 697 706 734 634 653 645 678 675 728 639 673 730 680 688 704 640 655 716 700 718 705 689 615 732 718 668 696 699 648 707 685 698 711 695 699 708 696 646 650 661 688 744 720 691 721 717 707 672 711 682 718 708 671 664 708 688 659 697 698 691 692 672 648 686 768 635 768 670 698 637 668 654 675 698 711 701 689 658 711 682 674 697 709 697 747 717 676 672 672 702 668 659 689 713 732 700 671 703 691 674 648 663 673 671 670 687 680 699 681 674 636 646 665 668 694 710 691 681 673 704 685 681 700 685 696 685 646 696 697 694 715 680 724 702 708 698 708 671 727 729 674 663 715 673 698 761 711 712 660 719 677 678 677 660 705 689 653 679 690 698 704 701 702 698 698 679 725 660 722 709 684 699 671 681 729 705 703 705 650 633 730 617 663 689 681 706 698 675 714 684 688 689 721 700 707 693 682 727 693 703 697 693 720 768 679 656 676 719 685 691 703 686 702 669 703 672 697 650 686 669 655 667 680 710 704 646 671 694 692 706 647 709 733 698 679 687 640 669 703 672 663 663 697 686 742 640 683 717 698 682 724 662 670 723 663 701 685 713 689 679 742 686 662 684 705 694 705 688 723 705 678 684 706 742 640 686 712 614 676 699 657 711 712 672 647 684 666 738 716 749 669 728 637 682 667 706 689 691 662 695 713 698 700 700 715 726 691 695 682 687 717 715 689 710 664 717 672 694 706 698 736 663 720 687 728 699 705 728 691 692 762 748 725 702 674 714 706 720 712 691 672 734 691 668 717 677 692 730 740 751 687 691 714 703 737 702 737 741 761 706 692 706 722 745 719 786 725 764 753 730 738 788 774 818 746 762 789 800 817 768 784 783 808 759 798 765 796 803 777 746 838 764 748 773 785 849 714 780 792 740 772 770 759 745 753 795 749 741 787 799 792 812 769 788 770 808 757 768 758 740 765 737 746 769 759 780 748 827 765 753 725 779 767 726 796 789 817 800 820 710 801 815 738 767 719 770 805 712 748 743 761 725 766 747 756 729 761 733 814</counts>
			</dataPoints>
		</scan>
	</xrdMeasurement>
</xrdMeasurements>
