<?xml version="1.0"?>
<xrdMeasurements xmlns="http://www.xrdml.com/XRDMeasurement/2.3" xmlns:xsi="http://www.w3.org/2001/XMLSchema-instance" xsi:schemaLocation="http://www.xrdml.com/XRDMeasurement/2.3 http://www.xrdml.com/XRDMeasurement/2.3/XRDMeasurement.xsd" status="Completed" recordIdentifier="{1F38AFA7-5F9C-49CA-8E7E-5D588D6C15F1}">
	<comment>
		<entry/>
	</comment>
	<sample type="To be analyzed">
		<id>GPSS_Li1p5Fe0p5Y0p25In0p25Cl4_121825_6943d914f4d05ae3d69790be</id>
		<name></name>
		<preparedBy></preparedBy>
	</sample>
	<xrdMeasurement measurementType="Scan" status="Completed" sampleMode="Reflection">
		<usedWavelength intended="K-Alpha 1">
			<kAlpha1 unit="Angstrom">1.5405980</kAlpha1>
			<kAlpha2 unit="Angstrom">1.5444260</kAlpha2>
			<kBeta unit="Angstrom">1.3922500</kBeta>
			<ratioKAlpha2KAlpha1>0.5000</ratioKAlpha2KAlpha1>
		</usedWavelength>
		<incidentBeamPath>
			<radius unit="mm">145.00</radius>
			<xRayTube id="1010048" name="Empyrean Cu LFF HR (9430 033 7310x)">
				<tension unit="kV">40.0</tension>
				<current unit="mA">15.0</current>
				<anodeMaterial>Cu</anodeMaterial>
				<focus type="Line">
					<length unit="mm">12.0</length>
					<width unit="mm">0.4</width>
					<takeOffAngle unit="deg">6.0</takeOffAngle>
				</focus>
			</xRayTube>
			<sollerSlit id="21010002" name="Soller slits 0.04 rad.">
				<opening unit="rad">0.0400</opening>
			</sollerSlit>
			<mask id="22031000" name="Fixed mask 13 mm">
				<width unit="mm">9.00</width>
			</mask>
			<divergenceSlit id="22120001" name="Divergence slit 1°" xsi:type="fixedDivergenceSlitType">
				<distanceToSample unit="mm">50.00</distanceToSample>
				<height unit="mm">1.52</height>
			</divergenceSlit>
		</incidentBeamPath>
		<sampleMovement xsi:type="spinningSampleMovementType">
			<spinnerRevolutionTime unit="seconds">1.0</spinnerRevolutionTime>
		</sampleMovement>
		<diffractedBeamPath>
			<radius unit="mm">145.00</radius>
			<antiScatterSlit id="22090040" name="AS slit 9 mm (PIXcel)" xsi:type="fixedAntiScatterSlitType">
				<height unit="mm">9.00</height>
			</antiScatterSlit>
			<sollerSlit id="21020003" name="Large Soller slits 0.04 rad.">
				<opening unit="rad">0.0400</opening>
			</sollerSlit>
			<filter id="20030001" name="Large beta-filter Nickel">
				<material>Ni</material>
				<thickness unit="mm">0.020</thickness>
			</filter>
			<detector id="7010019" name="PIXcel1D-Medipix3 detector" xsi:type="rtmsDetectorType">
				<phd unit="keV">
					<lowerLevel>4.02</lowerLevel>
					<upperLevel>11.27</upperLevel>
				</phd>
				<mode>Scanning</mode>
				<activeLength unit="deg">5.542</activeLength>
			</detector>
		</diffractedBeamPath>
		<scan appendNumber="0" mode="Continuous" scanAxis="Gonio" status="Completed">
			<header>
				<startTimeStamp>2025-12-22T12:10:41-08:00</startTimeStamp>
				<endTimeStamp>2025-12-22T12:18:48-08:00</endTimeStamp>
				<author>
					<name>AutomatedUser</name>
				</author>
				<source>
					<applicationSoftware version="1.7b (136)">PANalytical Aeris Instrument Suite</applicationSoftware>
					<instrumentControlSoftware version="3.2.00000000 20240306">AERIS</instrumentControlSoftware>
					<instrumentID>950485</instrumentID>
				</source>
			</header>
			<dataPoints>
				<positions axis="2Theta" unit="deg">
					<startPosition>10.00943322</startPosition>
					<endPosition>99.99442286</endPosition>
				</positions>
				<positions axis="Omega" unit="deg">
					<startPosition>5.00471661</startPosition>
					<endPosition>49.99721143</endPosition>
				</positions>
				<commonCountingTime unit="seconds">12.495</commonCountingTime>
				<counts unit="counts">2967 3038 3013 3033 3016 2939 2942 2968 3015 2929 3040 3035 3029 3025 3052 3035 3052 2988 2980 3057 3041 2998 3109 2973 3023 2986 3064 2995 3075 3048 3036 3074 3155 2988 2971 2973 3018 2997 3038 2964 2995 2923 3008 3020 3067 3097 3007 3007 3177 3035 3071 3059 3000 2993 2960 3033 3129 2957 3050 3034 3069 2993 3092 2988 3074 3180 3103 2990 2965 3153 3119 3141 3084 3105 3128 3125 2990 2981 3117 3100 3185 3091 3084 3042 3010 3044 3117 3117 3124 2976 3097 3015 3183 3113 3136 3081 3119 3041 3242 3202 3261 3059 3161 3182 3177 3112 3168 3077 3203 3150 3085 3259 3090 3203 3256 3148 3108 3101 3099 3139 3199 3213 3160 3164 3117 3268 3242 3252 3219 3205 3162 3312 3239 3249 3160 3168 3184 3184 3118 3197 3126 3202 3250 3268 3163 3273 3218 3182 3263 3164 3214 3166 3130 3112 3230 3190 3057 3114 3141 3220 3149 3227 3168 3259 3119 3185 3194 3152 3232 3129 3125 3147 3105 3174 3081 3192 3131 3189 3187 3190 3035 3159 3198 3148 3182 3129 3172 3182 3070 3153 3279 3190 3124 3178 3115 3136 3127 3121 3097 3262 3042 3198 3089 3165 3089 3015 3026 3115 3123 3050 3134 3048 3105 3031 3133 3017 3160 3046 3117 3050 3121 3153 3026 3051 3032 3078 3146 3073 3077 3070 3115 3133 3059 3070 2947 3098 3047 3077 3041 2969 2998 2960 2883 3122 3001 3044 2970 2977 3000 2976 2984 2950 3017 2966 2980 2960 3058 2995 2982 2988 2982 3069 3088 2942 2945 3095 2907 3041 2987 2937 3013 2910 2994 2987 3052 2950 3029 2864 2912 2949 2928 2864 2970 2933 2928 3005 2964 3093 2900 2961 2875 2994 2933 2881 2953 3038 2965 2949 3025 3012 2969 3035 3001 2981 3014 3036 2932 3005 2915 2986 2937 3120 3093 2988 2919 2896 3013 3058 2978 3040 2908 2950 3042 2970 3011 3038 3032 3049 2970 3069 3058 3082 2983 3053 3104 2991 3086 3021 3125 3033 3030 3061 3027 3071 3076 3074 3036 3087 3044 3027 3063 2955 3000 3083 3027 3019 3049 3039 3051 3059 3062 2992 3003 3061 3146 3035 3237 3010 3056 3175 3059 3196 3118 3261 3076 3240 3197 3096 3166 3156 3237 3143 3162 3232 3231 3094 3146 3331 3173 3266 3337 3322 3227 3227 3156 3203 3267 3322 3181 3225 3318 3211 3342 3295 3324 3380 3356 3350 3473 3524 3364 3538 3587 3575 3567 3564 3655 3683 3635 3776 3647 3897 3818 3868 3908 4033 3982 3997 4130 4029 4133 4112 4082 4008 4135 3927 4109 3925 3902 4017 3958 3804 3818 3868 3861 3920 3674 3666 3715 3690 3791 3654 3582 3845 3744 3804 3724 3661 3787 3616 3672 3686 3626 3590 3665 3531 3533 3657 3666 3659 3632 3537 3608 3559 3537 3621 3489 3484 3546 3462 3508 3520 3534 3587 3504 3577 3502 3527 3487 3330 3398 3334 3492 3334 3307 3328 3308 3410 3435 3487 3373 3425 3406 3452 3477 3269 3356 3322 3313 3307 3380 3401 3545 3342 3339 3323 3388 3288 3476 3407 3510 3414 3497 3458 3464 3467 3497 3468 3526 3500 3426 3563 3560 3424 3383 3424 3297 3475 3380 3364 3375 3298 3420 3357 3283 3256 3390 3339 3289 3255 3258 3197 3249 3236 3186 3096 3174 3200 3221 3103 3246 3193 3187 3044 3194 3199 3113 3139 3169 3163 3104 3195 3134 3053 3126 3041 2984 3193 3072 3052 3153 3042 3159 3065 3092 3128 2997 3104 3155 3035 3035 3071 3107 3026 3033 3113 3020 2921 3112 2966 3165 3018 2967 3016 2993 3024 3071 3029 2996 3112 2995 3102 3045 2952 3066 3007 2974 2916 3096 3028 2875 3040 3081 3034 3002 3032 2975 2984 2936 3018 2902 2885 2937 2928 3005 2901 2985 2982 2991 3002 3035 3098 3019 3109 3015 3035 3048 2991 3031 3080 3047 3112 3121 3057 3089 3067 3210 3146 3281 3231 3061 3183 3134 3326 3188 3259 3125 3191 3149 3214 3202 3078 3095 3052 3032 3014 3138 3026 2953 3026 3040 2959 2981 2900 2916 2939 2963 2910 2871 2984 2870 2864 2892 2859 2942 2845 2999 2856 2802 2943 2933 2882 2880 2932 2929 2750 2833 2805 2963 2768 2756 2807 2844 2806 2770 2861 2835 2828 2674 2810 2760 2741 2812 2877 2793 2755 2730 2828 2868 2856 2745 2852 2816 2778 2696 2779 2794 2814 2798 2914 2844 2781 2720 2821 2849 2859 2702 2791 2752 2822 2774 2756 2686 2744 2776 2817 2774 2825 2672 2635 2744 2664 2744 2825 2692 2759 2744 2732 2739 2677 2645 2665 2772 2726 2803 2733 2729 2791 2804 2764 2763 2686 2833 2701 2670 2637 2728 2749 2700 2719 2637 2609 2704 2716 2804 2722 2673 2746 2712 2662 2635 2703 2689 2650 2726 2736 2630 2627 2661 2779 2589 2681 2640 2674 2641 2628 2617 2660 2715 2724 2654 2691 2607 2632 2605 2649 2543 2570 2653 2681 2593 2620 2712 2688 2630 2708 2601 2597 2531 2553 2505 2592 2576 2705 2637 2684 2641 2666 2656 2617 2599 2641 2608 2617 2695 2628 2535 2588 2565 2597 2544 2557 2598 2659 2553 2582 2676 2619 2658 2535 2569 2570 2565 2530 2544 2569 2547 2481 2629 2621 2595 2546 2527 2542 2654 2577 2584 2498 2525 2595 2475 2497 2525 2537 2508 2440 2570 2517 2504 2538 2527 2459 2486 2536 2563 2549 2588 2535 2506 2522 2429 2535 2475 2458 2516 2582 2502 2401 2522 2488 2474 2546 2558 2375 2494 2512 2511 2454 2373 2510 2472 2581 2475 2474 2462 2438 2455 2449 2572 2537 2466 2493 2496 2531 2442 2460 2385 2419 2444 2502 2536 2375 2413 2416 2524 2372 2500 2471 2441 2411 2537 2459 2429 2454 2447 2373 2364 2514 2511 2493 2556 2319 2431 2342 2425 2461 2487 2391 2437 2289 2332 2419 2360 2502 2382 2305 2250 2336 2367 2439 2355 2415 2338 2360 2449 2409 2417 2329 2404 2358 2280 2415 2284 2352 2323 2343 2391 2410 2400 2428 2366 2407 2383 2365 2370 2445 2306 2344 2468 2435 2352 2397 2318 2362 2462 2460 2380 2257 2430 2411 2374 2415 2394 2336 2339 2421 2521 2419 2311 2340 2289 2365 2437 2407 2330 2351 2477 2360 2458 2369 2356 2388 2429 2458 2365 2325 2329 2455 2422 2464 2437 2470 2359 2392 2446 2511 2308 2405 2377 2309 2327 2370 2377 2392 2378 2271 2363 2358 2332 2317 2375 2384 2351 2331 2347 2265 2388 2312 2342 2384 2325 2316 2374 2326 2441 2359 2277 2356 2328 2364 2334 2322 2328 2278 2301 2386 2244 2341 2333 2275 2372 2254 2320 2335 2262 2363 2357 2327 2326 2371 2272 2280 2361 2378 2333 2216 2324 2307 2320 2350 2401 2265 2327 2255 2223 2281 2314 2263 2263 2306 2386 2332 2300 2274 2265 2322 2313 2319 2364 2243 2238 2303 2285 2302 2291 2260 2255 2219 2248 2210 2248 2184 2263 2267 2281 2270 2280 2204 2214 2177 2233 2240 2271 2244 2303 2240 2290 2146 2222 2171 2181 2240 2174 2204 2225 2270 2259 2183 2195 2218 2226 2153 2178 2298 2153 2206 2159 2227 2208 2189 2080 2254 2169 2200 2187 2141 2145 2223 2193 2222 2157 2206 2185 2125 2208 2149 2139 2157 2147 2169 2196 2111 2171 2166 2233 2241 2244 2174 2231 2281 2269 2258 2254 2288 2288 2369 2284 2336 2302 2295 2326 2286 2297 2325 2210 2268 2264 2239 2239 2159 2244 2206 2128 2188 2258 2201 2135 2176 2158 2068 2125 2201 2170 2138 2105 2140 2015 2219 2006 2032 2097 2132 2074 2088 2155 2074 2004 2067 2039 2111 1989 2008 2062 2025 2060 2083 2070 2022 2004 1987 1935 2031 2039 2066 2004 1987 2032 2037 2105 2087 2060 2018 2014 2018 2000 2028 2016 1969 2005 1985 2019 1942 1994 1979 2092 2020 2027 2005 2083 2007 2009 2072 2073 1936 1970 2067 1935 2033 1953 1962 1927 2042 1906 1992 1990 2002 1984 1961 1977 1997 1932 2035 1977 2043 2017 1985 1922 1953 1906 2001 2016 1928 1992 2010 1835 2004 1847 1951 1926 1913 1922 1912 1969 1979 1953 1866 1961 1980 1873 1910 2044 1920 1914 1898 1918 2029 1944 1950 1955 1904 1914 1973 2029 1969 1978 1912 1923 1854 1986 1977 1976 1948 1934 1924 2009 1862 1897 2006 1867 1973 1910 1958 1875 2002 1847 2002 1992 1994 1957 1904 1934 1885 1894 1851 1896 1899 1893 1984 1906 1936 1925 1867 1872 1911 1961 1917 1929 1927 1828 1946 1886 1934 1942 1939 1889 1811 1934 1934 1880 1860 1860 1939 1860 1900 1987 1891 1899 1911 1850 1951 1893 1901 1950 1887 1889 1814 1929 1918 1892 1827 1893 1970 1865 1832 1899 1862 1826 1937 1915 1879 1873 1843 1884 1917 1871 1783 1860 1852 1886 1912 1941 1872 1851 1906 1877 2016 1887 1923 2007 1922 1853 1869 1843 1903 1873 1887 1971 1886 1912 1851 1803 1954 1924 1865 1932 1948 1849 1908 1971 1930 1964 1948 1916 1899 1861 1897 1896 1858 1820 1923 1923 1933 1861 1901 1930 1875 1863 1847 1913 1949 1885 1859 1897 1913 1888 1908 1927 1842 1938 1857 1865 1845 1924 1962 1818 1898 1893 1868 1852 1951 1777 1884 1789 1902 1794 1863 1874 1839 1843 1872 1894 1830 1987 1897 1905 1869 1809 1898 1833 1854 1795 1785 1815 1888 1766 1918 1924 1877 1830 1807 1775 1848 1841 1840 1807 1855 1839 1862 1830 1774 1777 1791 1779 1734 1793 1761 1882 1873 1782 1883 1791 1935 1803 1822 1801 1798 1772 1878 1835 1809 1887 1875 1880 1820 1821 1863 1806 1827 1877 1809 1849 1883 1872 1888 1906 1792 1834 1814 1723 1836 1831 1866 1789 1853 1801 1905 1758 1894 1717 1865 1877 1823 1857 1734 1807 1775 1820 1808 1855 1817 1790 1800 1788 1785 1804 1785 1763 1682 1791 1782 1754 1776 1753 1830 1769 1843 1775 1757 1799 1771 1817 1891 1799 1805 1913 1852 1873 1877 2065 2002 2062 2060 2124 2190 2168 2262 2226 2400 2357 2468 2412 2478 2595 2474 2430 2303 2451 2418 2404 2336 2269 2324 2229 2246 2104 2149 2147 2142 2122 2056 2039 2033 2040 2073 1980 2046 1975 1879 1956 1888 1945 1865 1841 1761 1809 1832 1843 1826 1891 1888 1832 1850 1880 1769 1748 1835 1759 1813 1814 1779 1765 1845 1771 1787 1744 1717 1767 1738 1752 1764 1745 1658 1645 1761 1692 1700 1715 1739 1676 1690 1595 1721 1719 1733 1643 1624 1654 1695 1698 1676 1683 1661 1561 1697 1725 1658 1725 1658 1674 1691 1715 1668 1677 1725 1767 1717 1737 1825 1739 1778 1748 1891 1837 1825 1902 1851 2028 2050 2047 2160 2051 2196 2243 2341 2304 2302 2306 2405 2376 2463 2552 2488 2539 2405 2381 2429 2369 2323 2375 2307 2284 2195 2241 2154 2136 2160 2092 2052 1963 1993 2058 1967 1971 1936 1921 1898 1821 1797 1857 1761 1863 1853 1824 1767 1711 1818 1689 1784 1702 1648 1640 1631 1653 1654 1707 1665 1612 1714 1720 1641 1673 1611 1634 1591 1602 1636 1571 1584 1497 1620 1650 1597 1599 1504 1620 1572 1534 1550 1549 1498 1569 1502 1526 1522 1504 1539 1501 1558 1523 1452 1577 1530 1514 1463 1502 1599 1452 1566 1579 1534 1595 1600 1494 1546 1504 1512 1473 1512 1552 1556 1472 1522 1511 1514 1479 1463 1455 1506 1487 1556 1596 1537 1501 1505 1555 1486 1543 1506 1557 1537 1536 1541 1508 1481 1549 1489 1574 1573 1443 1507 1565 1544 1603 1661 1649 1667 1698 1623 1816 1812 1835 1989 2068 2124 2202 2268 2303 2404 2385 2398 2490 2467 2576 2438 2536 2479 2436 2416 2252 2235 2202 2134 2179 2207 2101 2094 2024 1974 1896 1862 1987 1822 1821 1810 1708 1720 1728 1676 1728 1689 1644 1635 1645 1615 1607 1589 1599 1532 1557 1497 1556 1525 1540 1608 1571 1610 1576 1490 1545 1585 1556 1552 1465 1569 1512 1617 1540 1502 1522 1581 1548 1520 1546 1474 1471 1464 1462 1510 1495 1487 1506 1487 1499 1458 1429 1403 1424 1350 1452 1457 1439 1462 1471 1382 1510 1465 1531 1338 1415 1490 1415 1389 1422 1395 1401 1386 1407 1448 1405 1334 1448 1409 1483 1461 1360 1426 1398 1345 1378 1435 1406 1398 1387 1510 1474 1458 1398 1395 1452 1404 1392 1346 1411 1401 1387 1411 1357 1449 1395 1392 1395 1409 1369 1349 1426 1322 1352 1424 1428 1376 1371 1313 1400 1329 1378 1445 1331 1434 1412 1477 1359 1357 1366 1354 1429 1344 1347 1416 1380 1389 1404 1385 1446 1423 1349 1360 1351 1434 1425 1419 1315 1406 1368 1416 1418 1391 1432 1388 1387 1380 1403 1372 1414 1389 1456 1490 1458 1424 1459 1384 1435 1389 1478 1476 1425 1437 1513 1447 1498 1468 1585 1550 1520 1594 1641 1559 1492 1648 1631 1675 1694 1742 1671 1719 1785 1854 1795 1747 1765 1805 1791 1802 1747 1777 1728 1724 1746 1717 1703 1726 1625 1589 1634 1651 1590 1606 1604 1622 1545 1583 1546 1596 1589 1640 1553 1546 1570 1547 1552 1598 1616 1516 1489 1585 1537 1615 1584 1624 1613 1679 1640 1752 1703 1739 1804 1860 1902 1983 2090 2181 2302 2344 2514 2701 2845 2953 3093 3373 3410 3623 3700 3907 3995 4119 4171 4345 4461 4161 4309 4313 4331 4285 4116 4216 4111 3850 3924 3757 3722 3581 3458 3424 3411 3320 3192 3007 3050 2924 2963 2801 2678 2663 2619 2581 2498 2480 2317 2295 2320 2229 2179 2165 2139 2099 2109 2147 1998 1985 1963 1920 1880 1893 1875 1797 1804 1767 1715 1709 1734 1606 1692 1722 1648 1662 1601 1532 1568 1562 1557 1564 1514 1520 1490 1548 1596 1491 1457 1488 1444 1440 1488 1497 1491 1509 1505 1446 1504 1492 1471 1416 1455 1432 1466 1468 1470 1450 1477 1432 1440 1448 1419 1430 1379 1468 1465 1428 1393 1409 1384 1399 1473 1419 1394 1436 1416 1437 1366 1320 1375 1411 1412 1375 1401 1394 1391 1352 1395 1414 1329 1397 1346 1341 1331 1386 1361 1256 1392 1369 1321 1313 1353 1365 1327 1398 1397 1306 1329 1230 1339 1352 1313 1332 1366 1231 1317 1353 1301 1317 1327 1319 1277 1331 1284 1383 1280 1325 1302 1345 1307 1311 1299 1251 1321 1408 1267 1236 1296 1345 1312 1328 1356 1263 1271 1288 1268 1361 1338 1340 1297 1296 1341 1377 1455 1364 1400 1457 1436 1428 1422 1357 1413 1419 1495 1410 1463 1466 1376 1363 1451 1438 1384 1423 1368 1389 1374 1421 1324 1355 1355 1438 1326 1337 1316 1338 1329 1266 1293 1298 1293 1262 1295 1302 1283 1226 1249 1302 1252 1248 1281 1295 1280 1290 1326 1292 1325 1278 1319 1325 1286 1300 1352 1307 1343 1323 1241 1228 1280 1256 1294 1328 1258 1188 1365 1300 1270 1255 1316 1318 1286 1308 1308 1263 1304 1296 1291 1313 1264 1303 1284 1307 1271 1249 1260 1227 1353 1255 1243 1357 1331 1299 1280 1298 1295 1392 1355 1332 1332 1245 1363 1350 1321 1346 1378 1347 1320 1365 1395 1352 1332 1383 1416 1378 1316 1290 1350 1352 1328 1390 1276 1368 1296 1284 1326 1343 1332 1329 1269 1300 1284 1258 1272 1256 1295 1316 1245 1262 1318 1332 1311 1191 1323 1276 1315 1260 1259 1275 1278 1215 1269 1334 1219 1246 1258 1236 1224 1237 1259 1244 1268 1250 1297 1323 1210 1237 1277 1265 1249 1231 1204 1279 1262 1277 1277 1258 1232 1236 1218 1280 1223 1264 1197 1278 1204 1237 1220 1218 1201 1232 1245 1253 1226 1200 1245 1223 1247 1222 1243 1265 1256 1196 1263 1221 1210 1222 1225 1302 1230 1228 1258 1166 1233 1256 1246 1232 1226 1269 1278 1188 1222 1275 1327 1257 1302 1243 1156 1213 1227 1219 1272 1259 1134 1248 1213 1304 1211 1273 1221 1142 1198 1217 1233 1228 1209 1212 1216 1246 1226 1214 1217 1221 1296 1215 1196 1190 1149 1140 1328 1233 1226 1245 1177 1238 1192 1198 1207 1237 1216 1211 1196 1204 1221 1262 1278 1238 1183 1198 1190 1280 1265 1189 1220 1211 1201 1163 1255 1205 1173 1153 1187 1174 1209 1236 1099 1164 1214 1259 1227 1220 1180 1153 1207 1218 1158 1183 1207 1110 1251 1173 1202 1203 1267 1162 1240 1208 1193 1199 1250 1237 1192 1206 1144 1200 1247 1261 1207 1307 1254 1216 1256 1179 1238 1267 1187 1253 1207 1204 1171 1168 1243 1227 1219 1202 1170 1244 1178 1198 1215 1263 1216 1168 1214 1195 1276 1238 1229 1236 1169 1245 1255 1201 1206 1212 1178 1247 1200 1195 1175 1140 1197 1236 1313 1299 1234 1237 1263 1299 1266 1237 1336 1340 1451 1325 1392 1373 1450 1450 1516 1528 1456 1565 1663 1632 1637 1711 1716 1797 1786 1668 1788 1741 1755 1817 1703 1666 1655 1678 1664 1671 1559 1590 1658 1500 1518 1467 1430 1416 1431 1403 1344 1391 1402 1348 1346 1353 1327 1380 1331 1284 1287 1266 1265 1214 1289 1242 1313 1192 1234 1245 1157 1296 1188 1234 1232 1173 1211 1225 1175 1226 1189 1187 1179 1211 1199 1248 1187 1194 1227 1172 1248 1283 1235 1222 1185 1150 1201 1163 1223 1112 1153 1196 1173 1172 1206 1249 1180 1171 1160 1203 1214 1154 1178 1189 1183 1224 1141 1224 1161 1183 1205 1202 1146 1185 1218 1139 1205 1116 1206 1151 1209 1120 1175 1130 1118 1215 1213 1221 1194 1196 1188 1182 1162 1176 1182 1154 1155 1204 1239 1129 1184 1214 1228 1252 1193 1208 1151 1208 1176 1216 1186 1229 1185 1200 1155 1214 1229 1149 1174 1201 1226 1184 1188 1185 1250 1227 1209 1229 1179 1201 1214 1149 1207 1258 1220 1182 1254 1222 1323 1256 1275 1262 1271 1233 1333 1257 1346 1316 1370 1338 1356 1296 1361 1291 1348 1322 1285 1244 1331 1317 1240 1271 1248 1195 1191 1229 1211 1240 1228 1228 1260 1200 1176 1249 1241 1220 1171 1269 1154 1223 1246 1239 1285 1253 1239 1197 1202 1210 1182 1151 1207 1197 1249 1224 1256 1235 1284 1226 1287 1265 1282 1286 1325 1228 1325 1293 1244 1257 1345 1276 1290 1319 1268 1266 1324 1265 1276 1248 1144 1276 1246 1249 1219 1272 1230 1223 1198 1176 1204 1201 1197 1255 1219 1240 1252 1204 1199 1209 1210 1201 1158 1191 1237 1159 1188 1154 1193 1213 1210 1233 1183 1231 1188 1156 1186 1242 1227 1228 1170 1188 1187 1241 1212 1153 1188 1239 1093 1208 1175 1223 1210 1178 1213 1178 1184 1234 1249 1301 1255 1227 1223 1157 1260 1294 1223 1256 1287 1281 1182 1204 1216 1249 1206 1224 1199 1192 1236 1139 1248 1163 1139 1197 1198 1167 1181 1199 1223 1224 1118 1200 1223 1230 1213 1216 1270 1185 1147 1188 1200 1254 1115 1182 1140 1153 1199 1130 1223 1116 1147 1226 1161 1222 1124 1233 1184 1236 1202 1145 1225 1189 1159 1155 1133 1188 1148 1201 1147 1123 1208 1145 1153 1134 1221 1269 1104 1229 1190 1211 1198 1247 1274 1193 1219 1238 1232 1249 1190 1296 1333 1360 1341 1339 1377 1355 1439 1419 1422 1448 1495 1453 1505 1431 1464 1457 1492 1567 1511 1544 1490 1522 1518 1534 1468 1461 1454 1478 1453 1448 1459 1463 1433 1418 1418 1403 1434 1383 1326 1354 1418 1352 1380 1384 1288 1345 1355 1388 1294 1320 1251 1295 1239 1313 1262 1261 1240 1242 1210 1219 1213 1194 1178 1254 1174 1240 1233 1152 1236 1209 1181 1196 1184 1197 1155 1163 1220 1204 1123 1158 1120 1226 1195 1121 1169 1213 1224 1170 1174 1103 1200 1064 1211 1147 1151 1132 1173 1161 1186 1172 1139 1157 1104 1190 1117 1125 1146 1121 1138 1113 1155 1133 1091 1138 1148 1218 1136 1178 1153 1179 1136 1160 1174 1125 1161 1185 1148 1156 1190 1127 1149 1103 1147 1133 1158 1154 1162 1131 1113 1108 1160 1069 1144 1121 1161 1111 1120 1133 1141 1149 1188 1150 1183 1131 1125 1148 1165 1169 1211 1112 1130 1136 1125 1152 1223 1093 1182 1182 1162 1108 1160 1094 1091 1128 1174 1060 1178 1127 1150 1157 1134 1184 1136 1188 1098 1110 1248 1084 1166 1099 1134 1119 1103 1088 1136 1144 1109 1159 1152 1165 1145 1091 1100 1136 1100 1150 1163 1073 1158 1089 1193 1096 1155 1099 1091 1133 1165 1185 1114 1180 1112 1145 1046 1143 1166 1158 1138 1166 1085 1214 1130 1129 1198 1120 1151 1156 1132 1091 1097 1170 1154 1203 1115 1209 1145 1156 1156 1138 1088 1156 1145 1158 1185 1213 1142 1191 1188 1213 1182 1189 1212 1220 1211 1196 1211 1230 1248 1232 1250 1218 1231 1277 1281 1178 1219 1177 1295 1238 1314 1316 1201 1236 1276 1237 1181 1276 1223 1275 1167 1240 1243 1280 1188 1177 1314 1200 1206 1270 1252 1226 1234 1218 1172 1223 1206 1203 1180 1174 1172 1234 1228 1210 1238 1310 1222 1197 1213 1236 1247 1221 1183 1246 1274 1299 1294 1238 1325 1290 1333 1409 1478 1468 1446 1459 1494 1545 1561 1613 1539 1579 1521 1532 1536 1568 1673 1674 1554 1648 1620 1559 1571 1525 1466 1474 1390 1438 1368 1397 1401 1344 1351 1378 1362 1317 1328 1312 1326 1314 1285 1332 1283 1305 1266 1319 1283 1297 1316 1299 1301 1320 1297 1346 1337 1410 1345 1439 1441 1446 1536 1451 1559 1563 1652 1704 1724 1801 1849 1994 2014 2127 2152 2246 2296 2392 2400 2464 2490 2593 2579 2555 2543 2700 2644 2701 2714 2630 2727 2688 2652 2634 2677 2553 2515 2441 2484 2478 2445 2387 2314 2381 2244 2204 2145 2159 2095 2157 1972 2052 1930 1868 1784 1880 1800 1704 1741 1649 1661 1613 1661 1650 1596 1505 1538 1479 1439 1498 1488 1532 1465 1428 1394 1396 1367 1392 1357 1349 1375 1427 1327 1326 1317 1350 1343 1279 1318 1245 1239 1257 1308 1336 1251 1236 1243 1238 1221 1246 1187 1189 1249 1217 1188 1151 1205 1169 1199 1237 1183 1190 1174 1224 1221 1137 1163 1170 1179 1179 1235 1197 1160 1146 1226 1161 1195 1139 1196 1212 1149 1149 1192 1153 1161 1153 1180 1126 1188 1211 1198 1178 1114 1154 1117 1175 1152 1203 1091 1237 1151 1128 1103 1060 1177 1145 1148 1126 1102 1085 1083 1045 1138 1163 1097 1110 1115 1092 1145 1096 1140 1098 1086 1130 1139 1141 1115 1079 1134 1033 1078 1091 1122 1140 1130 1137 1126 1143 1098 1105 1096 1057 1088 1027 1111 1096 1166 1109 1119 1144 1128 1126 1142 1072 1117 1073 1088 1155 1098 1066 1139 1164 1123 1111 1167 1144 1160 1112 1113 1157 1214 1153 1203 1131 1167 1240 1215 1205 1170 1238 1215 1220 1289 1226 1308 1295 1259 1317 1319 1252 1269 1379 1341 1384 1387 1383 1349 1414 1367 1434 1380 1326 1388 1313 1386 1341 1374 1309 1434 1371 1371 1363 1326 1373 1280 1336 1378 1333 1368 1307 1341 1323 1283 1285 1261 1266 1296 1166 1288 1224 1259 1168 1188 1195 1233 1241 1175 1203 1215 1196 1167 1161 1207 1134 1122 1142 1132 1138 1119 1100 1106 1106 1137 1151 1122 1123 1148 1121 1150 1146 1086 1138 1135 1150 1137 1188 1166 1156 1158 1123 1104 1195 1118 1133 1185 1204 1155 1099 1105 1245 1156 1174 1168 1191 1152 1139 1159 1137 1114 1180 1158 1128 1127 1234 1188 1177 1099 1132 1163 1098 1064 1095 1114 1124 1086 1113 1154 1103 1115 1081 1101 1115 1057 1140 1073 1091 1140 1112 1129 1121 1068 1025 1100 1073 1117 1098 1058 1091 1148 1070 1063 1090 1092 1100 1162 1091 1119 1089 1176 1161 1103 1174 1131 1205 1156 1163 1107 1124 1154 1235 1215 1195 1164 1105 1192 1216 1139 1139 1157 1162 1222 1190 1136 1170 1186 1114 1147 1146 1067 1168 1166 1100 1169 1094 1118 1091 1095 1083 1075 1062 1067 1075 1129 1063 1043 1116 1047 1057 986 1076 1034 1047 1027 1086 997 1051 1043 1068 1070 1089 1110 1052 1071 1043 1038 1102 1012 1015 1052 1017 1085 1071 1058 1068 1047 1070 1015 1033 1015 1023 1018 1022 1032 1020 1007 1015 1003 1116 1072 997 1091 1063 1053 1041 1038 1035 1037 1106 1058 1052 1032 1009 1085 1068 1048 1030 1001 1060 1061 1080 1055 1003 1036 1052 1094 1041 1079 1025 1092 1075 1042 1086 1009 1070 1074 1072 1072 1076 1099 1021 1100 1089 1010 1146 1042 1037 1004 1026 1045 1082 1056 1043 1023 1094 1058 1028 1033 1068 1005 1008 1024 1009 1038 1000 998 988 1053 1036 1043 1036 1017 1010 1083 1024 1029 978 1077 1036 1051 961 1038 1028 1031 987 1023 1006 1004 989 1022 1094 1040 982 1000 1015 1061 1020 984 1062 1028 1030 957 1039 1036 1069 1044 1017 1010 1039 1103 1036 1013 1061 1021 1036 1019 1052 1047 994 1032 1044 1017 1054 978 1011 1000 1008 1032 1072 1028 1019 1012 1063 1013 1049 1028 1095 966 1051 1104 980 1045 1042 1041 1043 1034 995 1044 1027 1035 1025 997 993 1004 960 1089 1042 1019 1041 1034 1006 986 1086 1045 1034 970 1055 1062 1012 1010 1027 1049 1042 1044 1027 1081 1034 1066 1020 1032 974 1037 1048 1002 1084 1055 1018 1017 1011 1023 1017 998 1006 1070 1072 1011 1028 1040 991 1050 1000 1019 1058 1021 1029 993 1052 1013 993 1053 1021 1004 991 1046 1067 1024 1011 1026 986 1026 978 1042 1022 1044 1029 1077 1051 1042 1101 1058 1061 1062 1060 1100 975 1013 1139 1058 996 1063 986 1055 1004 1062 1035 1089 1095 979 1046 1055 1064 1094 1027 1075 1043 1058 1029 1053 1034 1005 970 991 1044 989 1124 1044 993 1028 1033 1001 1003 990 1075 1065 1011 957 1047 1049 1038 1019 979 1057 984 1007 1007 1075 996 1052 998 1015 1013 1022 1060 1013 1018 1067 1011 995 997 1020 1019 971 1083 1004 1030 1004 1001 1020 1021 1043 1037 1028 983 1041 1024 1023 1030 971 1006 1064 1014 1100 1078 1058 1061 1021 1074 1092 1104 1060 1062 1104 1088 1079 1127 1079 1031 1117 1104 1082 1083 1074 1133 1063 1042 1095 976 1129 1117 1101 1056 1047 1026 1119 1070 1099 1092 1009 1081 1115 1070 1111 1014 1052 1062 1068 958 1104 1063 1017 1000 1023 1033 996 1105 1068 1013 1051 1051 1030 1078 1037 1026 1120 1102 1144 1064 1099 1089 1124 1033 1159 1105 1038 1143 1062 1187 1117 1178 1159 1182 1174 1162 1169 1109 1181 1226 1225 1175 1194 1150 1142 1208 1154 1132 1183 1184 1220 1247 1171 1172 1183 1149 1200 1173 1160 1204 1145 1159 1218 1259 1209 1256 1213 1126 1187 1167 1166 1162 1175 1159 1223 1150 1124 1111 1160 1163 1135 1141 1119 1136 1119 1103 1115 1032 1094 1034 1060 1113 1100 1064 1082 1050 1065 1083 1113 1118 1195 1082 1081 1103 1056 1053 1062 1041 1030 1098 1094 1099 1061 1097 1036 1004 1080 1097 1058 1090 1089 1030 1099 1038 1020 1045 1070 1012 1071 1082 1086 1040 1095 1120 1084 1066 1035 1068 1096 1098 1074 1136 1045 1095 1064 1059 1044 1111 1003 1102 1082 1072 1074 1091 1009 1008 1104 1049 1037 972 1020 1068 1004 1002 1010 1050 1079 1018 1037 1065 993 1054 1026 980 1062 1030 987 1007 1066 1046 1000 939 999 994 988 1029 1037 941 1050 1054 975 958 967 1059 984 994 974 1009 1018 1052 998 997 997 1022 1009 959 1028 1005 1002 994 1002 978 1015 1024 1036 1020 956 1012 1017 1047 1032 1046 1116 1022 1054 1078 1044 975 928 1033 994 993 1044 1047 1031 983 980 1058 1019 978 967 973 1029 1001 1052 1032 975 1012 1035 1071 992 978 999 1010 1086 1022 1060 1027 1073 1055 1020 1073 1036 1028 1022 1058 1033 1042 1056 1011 1029 1088 1084 1032 1100 1050 1105 1108 1081 1114 1093 1130 1089 1145 1187 1139 1213 1143 1195 1258 1238 1249 1268 1252 1359 1304 1322 1333 1314 1321 1346 1403 1444 1371 1369 1339 1394 1428 1346 1454 1358 1369 1419 1395 1404 1298 1368 1395 1290 1324 1295 1308 1257 1339 1261 1302 1306 1302 1308 1278 1260 1212 1310 1266 1168 1241 1171 1190 1175 1125 1213 1153 1097 1165 1137 1180 1189 1084 1124 1154 1141 1092 1088 1102 1108 1064 1091 1106 1081 1121 1073 1074 1104 1082 1068 1027 1024 963 1026 1013 1016 1020 993 1005 1042 1023 1010 996 1009 979 1028 1026 1074 1047 1011 1039 987 994 994 1060 1005 1030 983 980 993 1016 1011 958 1049 1030 986 1026 967 1040 1017 1013 972 1031 982 1023 1030 1025 980 974 1019 943 962 1031 1048 975 991 1069 1010 1058 963 966 1013 973 992 997 964 1073 986 957 999 998 1004 1053 1002 994 1017 945 983 996 987 947 1034 1002 990 1015 948 985 1001 968 997 1014 1010 978 988 926 985 999 970 999 959 952 986 1047 1001 993 1029 1003 1086 1066 1004 994 1064 1014 1069 1040 990 1071 1008 1037 1084 1056 1064 1026 1080 950 1086 1059 1022 1044 1063 1059 1079 1150 1103 1075 1127 1093 1060 1072 1114 1083 1068 1124 1041 1046 1092 1049 1057 1059 1087 1034 1066 1055 1047 1067 1069 1031 1039 1043 1041 1069 1069 998 1021 1027 921 1017 1030 994 1001 973 1011 983 1016 1014 994 1022 1048 965 992 1029 1016 1032 992 998 969 973 1027 955 1012 986 988 1000 964 964 941 1009 940 988 991 951 1003 977 998 938 950 1007 987 996 963 969 1006 928 989 958 981 975 985 997 1039 1061 994 966 954 961 950 1024 1042 1002 1005 995 942 966 1006 1004 977 995 965 975 934 1031 989 987 1018 916 939 949 943 1041 993 981 1006 989 992 953 1048 983 1029 1003 1007 1011 1003 1028 1063 963 1003 1048 1001 992 910 992 1049 1016 1020 1038 1006 1086 1044 1053 1034 1040 1031 1093 993 1013 1114 1091 1054 979 1026 1050 940 1008 1026 1032 1022 1007 1081 1034 993 1023 1002 994 1048 1029 1062 1000 955 982 1053 1022 956 1007 956 937 940 971 983 1001 1023 961 931 979 948 956 950 913 1004 975 964 953 964 1015 936 955 996 923 955 943 993 943 969 912 949 963 907 940 934 957 963 951 937 1011 977 1052 942 959 978 1006 946 952 965 952 982 965 915 946 956 930 908 937 991 924 939 931 921 925 933 985 962 951 1014 867 982 949 955 990 974 972 966 916 967 965 964 919 922 976 952 911 947 964 916 956 948 1012 1007 984 949 942 912 1021 1000 967 941 950 978 1011 964 1001 980 962 909 950 974 989 958 968 938 979 950 924 1016 957 957 956 954 916 1005 944 1002 955 962 921 914 921 949 936 935 964 936 1014 988 924 988 977 892 990 967 956 963 940 962 897 954 871 944 920 893 1002 891 959 939 939 955 944 940 958 978 964 912 1009 961 986 947 958 956 965 1001 937 917 936 938 972 975 998 926 934 1008 1020 988 986 1033 998 1023 997 966 966 996 989 984 954 987 987 995 948 993 968 1023 956 955 947 962 993 984 953 1003 906 984 924 1006 945 961 919 984 950 909 983 956 941 1005 887 953 920 918 954 923 910 968 935 893 921 937 916 989 921 924 1030 943 931 972 939 949 936 931 912 906 977 945 928 945 971 946 970 885 946 917 914 959 927 940 953 840 957 916 951 932 988 946 899 931 957 927 988 914 870 885 931 969 944 915 887 888 1007 900 988 976 933 893 944 931 958 918 896 912 933 965 932 987 983 976 972 996 964 955 1013 947 943 909 909 944 961 989 959 949 1014 992 939 1002 996 948 1049 1069 1007 980 998 970 982 1022 930 1007 1007 978 991 983 1003 949 1013 999 1046 974 1024 1000 971 988 1045 941 1003 1046 960 952 1012 1010 1015 984 1002 999 928 977 924 981 947 948 935 966 1013 990 948 979 1024 951 973 967 936 924 939 991 979 1016 931 957 935 944 991 900 984 932 995 909 938 990 967 930 977 934 982 913 976 972 929 863 920 988 933 973 918 867 924 940 990 939 922 935 961 943 952 875 914 911 905 927 927 955 891 1013 929 952 978 951 925 975 956 953 932 965 925 960 945 933 968 975 1008 930 1009 969 906 974 908 905 914 966 943 920 955 931 959 904 918 918 913 896 963 981 899 906 906 949 934 951 942 906 940 907 876 929 926 892 915 948 975 959 928 956 978 964 945 953 898 890 925 939 959 906 948 946 926 927 899 921 913 937 978 982 985 906 949 943 911 953 943 932 902 906 933 938 967 946 991 935 900 932 893 960 970 953 985 972 978 861 921 940 959 882 889 926 950 967 951 997 923 979 971 923 949 936 918 937 941 933 882 898 932 946 930 899 898 980 918 937 931 990 886 943 977 929 959 938 926 943 908 972 943 972 957 959 933 955 979 985 979 985 992 953 961 995 934 914 945 915 878 980 913 878 941 942 973 973 916 972 966 941 981 1014 949 973 954 1025 1041 1039 982 977 1005 974 1051 1015 990 1015 989 1041 1019 1047 1065 1075 1034 1017 1093 1068 997 1053 1022 1058 1067 1115 1050 1072 1044 1041 1048 1070 956 1041 975 999 1060 1046 999 1057 1036 1003 1010 1013 965 935 1045 975 996 949 978 1041 1008 967 974 965 957 979 983 1007 906 924 969 1002 974 955 973 913 963 964 913 954 972 991 936 1018 976 954 919 960 931 1071 915 971 914 944 969 946 929 925 988 923 937 944 989 938 939 965 951 948 895 964 917 929 939 941 1000 899 947 918 926 988 970 997 960 908 909 935 918 940 877 938 933 978 947 956 915 917 934 928 936 889 980 947 953 998 960 940 948 924 945 948 920 942 930 917 933 882 880 929 988 961 938 969 962 918 906 943 959 936 942 851 858 986 929 910 955 873 928 921 880 914 899 946 914 961 910 909 932 963 955 958 930 968 907 886 995 937 933 881 919 914 965 957 917 969 920 936 919 903 917 889 977 857 924 928 924 935 851 908 867 870 946 970 939 951 1001 930 911 939 949 920 873 950 899 894 935 937 946 969 926 921 939 935 934 940 939 939 960 857 943 888 900 938 924 907 925 931 917 912 890 916 930 953 900 984 892 907 916 889 997 960 955 949 999 976 940 958 955 935 957 963 937 924 944 913 1006 940 927 864 946 925 971 944 936 898 938 923 928 923 982 927 957 928 924 977 908 944 887 883 927 943 923 871 893 885 894 937 892 973 962 915 971 892 976 956 946 979 962 943 895 927 957 969 972 890 920 957 963 924 927 897 986 882 910 847 966 949 966 906 886 890 922 938 917 1034 881 957 906 926 907 928 902 914 920 939 958 959 911 896 903 916 951 920 875 938 949 961 927 927 927 902 883 921 941 947 879 943 946 893 981 941 880 947 938 885 900 892 930 933 875 981 918 919 849 932 911 881 907 911 927 943 926 885 917 915 936 928 907 954 910 964 881 929 908 944 931 884 934 870 1001 952 866 904 891 874 925 926 913 935 952 894 927 907 893 953 920 918 885 922 891 940 985 888 893 885 933 924 894 936 909 904 884 950 899 972 905 937 967 892 892 954 887 1016 952 932 956 954 970 942 948 954 936 940 890 939 933 952 904 886 956 937 921 910 961 922 896 896 949 923 937 954 952 954 969 930 936 945 900 944 899 891 956 993 946 957 894 960 916 968 926 938 902 935 950 976 957 853 910 943 929 983 909 996 889 947 908 1013 910 951 902 960 940 919 896 897 901 950 949 919 904 946 895 943 1003 962 941 916 922 958 936 911 906 962 914 933 905 941 923 900 926 927 944 840 940 874 921 951 956 924 949 906 980 928 958 937 956 909 895 946 882 918 881 889 954 893 901 908 908 927 953 943 1023 884 904 929 951 970 917 898 969 951 914 923 873 911 890 911 922 942 884 931 960 873 938 914 900 939 966 902 949 943 880 964 967 999 907 935 942 906 964 969 944 889 899 916 916 950 908 924 950 992 932 933 912 930 910 915 943 968 953 932 945 946 928 925 916 986 962 977 920 927 980 952 953 939 985 1043 982 970 976 939 1007 993 979 961 995 974 988 1022 954 950 957 951 987 999 977 1040 980 1075 1011 980 992 1020 965 1017 978 1025 1013 1010 947 1027 1064 1007 1021 1016 1061 1007 1063 1021 1006 1053 937 981 1023 1065 1012 999 1070 991 986 1034 1043 990 1030 1037 1031 952 1026 1003 1006 1010 992 952 987 1000 1011 1010 976 1033 1003 982 997 1007 992 938 953 961 992 1026 998 1010 1063 1003 1012 987 955 963 968 963 983 965 978 1041 946 957 951 963 967 978 971 1008 960 951 988 1024 947 977 968 947 959 940 950 934 990 963 965 919 955 949 954 960 889 972 956 931 973 953 968 1005 922 951 910 969 948 938 955 946 949 999 909 925 964 987 963 937 980 942 964 977 976 977 952 945 960 945 938 1004 952 986 1003 959 989 946 944 988 903 974 931 927 915 967 952 902 991 950 976 1035 1027 949 932 982 980 962 934 949 964 1031 902 921 960 912 939 936 896 944 918 926 930 962 977 996 943 979 946 983 910 992 975 945 990 937 1037 990 943 932 986 968 988 977 983 1011 1024 944 955 1000 947 962 1007 973 906 1031 955 952 1031 992 1011 958 1008 974 1005 986 980 1056 971 933 899 920 927 973 958 999 989 1006 941 977 975 967 1003 983 1008 993 1004 998 1045 972 952 1027 1010 975 1042 1014 996 1079 1031 1017 1061 1063 1072 1040 1107 1128 1101 1064 1109 1161 1056 1106 1129 1067 1119 1171 1165 1140 1156 1186 1183 1203 1205 1197 1167 1165 1208 1219 1235 1247 1257 1226 1231 1200 1179 1194 1203 1186 1228 1177 1163 1211 1128 1141 1103 1145 1176 1161 1181 1136 1162 1125 1153 1144 1164 1171 1065 1132 1087 1072 1079 1127 1126 1024 1098 1083 1068 1039 1015 1076 1131 1051 997 1062 1053 1071 953 1061 999 967 1036 1034 1003 972 1004 1070 997 1036 1027 1031 978 910 1066 975 1019 975 909 1019 1026 977 1032 1007 999 971 939 988 908 983 950 954 966 967 983 1012 961 945 937 991 920 992 948 934 878 919 995 958 915 918 895 927 932 928 909 949 932 897 894 940 915 961 929 891 934 951 878 959 951 947 917 926 1008 879 979 925 949 941 933 892 883 950 1017 952 892 917 921 947 932 927 951 962 948 919 921 961 956 920 909 981 944 931 949 934 948 973 984 958 917 928 940 914 915 919 938 993 941 926 961 946 956 980 970 937 970 942 977 925 929 953 940 894 880 907 1008 975 941 1027 925 896 939 954 884 917 917 930 907 951 925 966 922 978 856 976 900 905 954 946 961 939 984 861 966 958 935 920 931 960 948 913 946 912 946 949 904 900 955 914 954 969 898 940 956 972 988 952 933 988 965 973 913 949 926 959 974 1033 1007 951 1015 954 981 920 1042 955 967 978 983 978 949 972 972 901 947 968 981 964 979 947 975 952 969 936 903 883 939 994 974 901 895 914 1012 917 897 962 921 889 896 948 859 918 915 941 911 899 926 927 897 903 894 898 902 902 977 935 880 938 860 906 907 931 958 941 925 903 884 925 957 927 916 931 907 907 954 924 940 948 943 975 929 869 929 874 876 931 915 887 912 893 923 912 882 885 949 882 905 938 857 944 877 906 917 947 862 898 920 914 918 898 912 906 906 875 865 891 866 893 918 882 886 923 911 911 907 881 923 910 889 883 891 905 891 900 942 951 895 926 893 922 953 909 879 877 926 893 897 874 940 885 882 976 966 942 945 931 887 896 942 951 889 891 916 956 899 902 905 953 848 873 986 904 939 905 911 900 906 944 878 933 922 911 888 931 946 927 854 871 903 895 939 907 912 925 909 929 867 895 948 934 955 882 937 889 889 890 914 860 981 843 876 921 871 894 853 908 895 891 883 906 870 876 894 873 925 917 923 893 865 880 910 908 899 874 878 915 848 901 918 913 965 879 885 889 925 871 895 921 921 870 892 826 913 911 910 908 914 909 917 902 919 893 913 932 930 892 863 908 866 919 883 918 895 890 861 913 899 901 895 884 942 900 880 871 883 891 911 854 913 845 935 879 874 928 949 858 901 867 853 890 807 894 877 980 923 874 908 928 861 917 878 943 938 872 918 884 903 892 882 946 888 897 954 873 902 945 896 929 895 883 896 940 824 895 848 903 919 915 965 919 909 900 897 924 923 906 901 987 898 892 858 927 925 873 941 885 943 967 909 901 949 937 920 888 898 925 895 948 936 935 927 945 888 925 933 887 1000 937 955 938 852 962 952 931 925 966 916 928 889 888 905 964 919 891 959 872 939 945 907 949 918 929 930 932 982 929 916 963 859 929 896 926 942 926 921 947 926 996 985 938 939 973 948 946 949 957 893 922 935 955 911 940 899 970 897 908 934 923 901 869 893 899 908 899 922 945 911 946 884 964 865 901 892 939 922 937 873 900 871 903 924 939 899 882 908 966 966 912 940 886 868 849 855 880 876 911 929 907 888 922 925 889 918 924 902 916 934 976 914 881 918 934 943 897 865 911 832 848 934 904 874 894 878 900 927 930 863 890 910 917 923 924 899 923 879 958 936 883 925 900 908 909 913 905 886 899 940 932 923 968 927 946 899 880 890 939 911 894 915 891 915 905 906 918 925 908 892 893 918 917 907 920 867 916 894 947 897 922 938 843 862 942 873 907 896 926 847 875 911 815 922 871 911 933 863 934 923 883 923 853 887 878 902 897 860 906 889 894 863 889 832 896 926 852 928 864 845 895 826 907 883 936 972 887 882 914 876 865 874 941 907 901 943 886 901 894 965 994 914 911 884 873 958 928 880 926 914 911 910 855 940 871 899 902 940 917 929 949 906 947 955 899 947 932 992 904 952 950 981 915 998 939 947 983 999 965 1008 970 957 985 1021 1084 1024 1019 1021 1044 1007 990 1077 1031 1028 1042 1052 1103 1070 1081 1000 1025 1048 1065 1067 1113 1068 1004 1085 1135 1051 1043 1080 1053 1051 1065 1065 1098 1012 1085 1077 1023 1094 1080 1074 1055 1005 1015 1040 1046 1052 1018 1005 963 958 1008 1027 1047 1040 992 1049 1022 969 1026 965 1003 1041 989 1013 1025 1033 1011 987 943 997 992 926 959 1004 961 954 997 955 924 984 972 1044 999 987 925 967 942 921 990 961 912 884 956 943 958 980 953 978 940 925 879 926 883 936 888 907 903 977 913 979 881 854 905 926 922 949 877 895 892 910 927 897 903 961 877 945 931 922 921 913 930 959 955 923 893 855 897 929 921 914 883 904 908 974 897 909 920 872 870 898 908 894 875 899 916 864 905 865 907 854 877 925 883 886 892 884 907 980 954 933 907 889 897 906 894 892 960 901 943 916 929 915 907 928 901 876 883 905 876 915 982 928 912 913 924 937 920 899 962 944 912 920 914 911 915 880 903 900 1015 883 956 927 903 871 875 895 935 893 873 889 896 901 922 898 913 912 941 848 889 908 928 881 884 875 863 890 914 887 845 858 933 849 834 846 925 900 918 858 940 836 922 851 907 914 897 889 966 951 862 874 905 898 947 894 915 888 900 883 821 954 831 829 859 878 901 874 906 877 865 872 847 843 861 870 895 863 864 883 895 874 922 855 913 868 871 923 893 884 902 834 856 895 910 913 910 868 899 900 871 865 913 904 893 856 792 867 874 875 891 833 898 895 910 885 846 907 881 877 937 860 893 908 856 836 881 873 941 831 867 892 841 877 863 874 960 908 905 824 870 843 866 854 847 863 873 849 858 870 863 858 840 851 832 901 904 853 852 894 906 889 881 851 859 886 924 940 858 884 890 884 842 881 879 902 858 925 885 857 865 858 871 895 907 918 886 873 842 805 885 905 824 920 878 926 873 852 877 869 823 889 799 837 865 903 903 865 909 923 833 844 843 877 878 837 833 882 901 871 853 841 831 881 933 885 879 877 929 857 885 872 869 861 858 909 839 881 852 930 914 889 900 914 922 871 886 879 848 884 876 899 808 849 876 828 896 895 913 895 899 905 837 902 869 864 882 837 890 886 875 865 869 850 942 866 900 891 875 893 912 873 872 900 871 876 826 853 790 941 928 935 918 859 799 856 895 889 853 875 889 851 872 857 885 862 814 871 926 883 890 871 872 865 882 860 915 853 840 893 828 841 836 855 885 903 896 905 906 840 908 889 920 889 894 915 820 874 892 870 954 920 856 866 827 864 831 860 892 851 861 829 899 846 868 936 822 792 845 899 821 903 871 855 843 894 927 870 874 916 860 804 869 884 910 856 869 908 849 803 850 901 837 863 840 920 877 917 880 886 867 903 839 904 807 876 908 892 854 908 917 895 912 831 881 950 873 866 870 828 851 864 915 867 860 836 895 900 861 901 876 905 888 834 877 911 888 944 892 946 877 888 860 901 885 946 902 922 884 920 934 887</counts>
			</dataPoints>
		</scan>
	</xrdMeasurement>
</xrdMeasurements>
