<?xml version="1.0"?>
<xrdMeasurements xmlns="http://www.xrdml.com/XRDMeasurement/2.3" xmlns:xsi="http://www.w3.org/2001/XMLSchema-instance" xsi:schemaLocation="http://www.xrdml.com/XRDMeasurement/2.3 http://www.xrdml.com/XRDMeasurement/2.3/XRDMeasurement.xsd" status="Completed" recordIdentifier="{97FA47DD-92CC-41F2-8FE1-26699566791F}">
	<comment>
		<entry/>
	</comment>
	<sample type="To be analyzed">
		<id>GPSS_Li2Co0p5Fe0p5Cl4_110625_690d9f07f040177efa2b78ef</id>
		<name></name>
		<preparedBy></preparedBy>
	</sample>
	<xrdMeasurement measurementType="Scan" status="Completed" sampleMode="Reflection">
		<usedWavelength intended="K-Alpha 1">
			<kAlpha1 unit="Angstrom">1.5405980</kAlpha1>
			<kAlpha2 unit="Angstrom">1.5444260</kAlpha2>
			<kBeta unit="Angstrom">1.3922500</kBeta>
			<ratioKAlpha2KAlpha1>0.5000</ratioKAlpha2KAlpha1>
		</usedWavelength>
		<incidentBeamPath>
			<radius unit="mm">145.00</radius>
			<xRayTube id="1010048" name="Empyrean Cu LFF HR (9430 033 7310x)">
				<tension unit="kV">40.0</tension>
				<current unit="mA">15.0</current>
				<anodeMaterial>Cu</anodeMaterial>
				<focus type="Line">
					<length unit="mm">12.0</length>
					<width unit="mm">0.4</width>
					<takeOffAngle unit="deg">6.0</takeOffAngle>
				</focus>
			</xRayTube>
			<sollerSlit id="21010002" name="Soller slits 0.04 rad.">
				<opening unit="rad">0.0400</opening>
			</sollerSlit>
			<mask id="22031000" name="Fixed mask 13 mm">
				<width unit="mm">9.00</width>
			</mask>
			<divergenceSlit id="22120001" name="Divergence slit 1°" xsi:type="fixedDivergenceSlitType">
				<distanceToSample unit="mm">50.00</distanceToSample>
				<height unit="mm">1.52</height>
			</divergenceSlit>
		</incidentBeamPath>
		<sampleMovement xsi:type="spinningSampleMovementType">
			<spinnerRevolutionTime unit="seconds">1.0</spinnerRevolutionTime>
		</sampleMovement>
		<diffractedBeamPath>
			<radius unit="mm">145.00</radius>
			<antiScatterSlit id="22090040" name="AS slit 9 mm (PIXcel)" xsi:type="fixedAntiScatterSlitType">
				<height unit="mm">9.00</height>
			</antiScatterSlit>
			<sollerSlit id="21020003" name="Large Soller slits 0.04 rad.">
				<opening unit="rad">0.0400</opening>
			</sollerSlit>
			<filter id="20030001" name="Large beta-filter Nickel">
				<material>Ni</material>
				<thickness unit="mm">0.020</thickness>
			</filter>
			<detector id="7010019" name="PIXcel1D-Medipix3 detector" xsi:type="rtmsDetectorType">
				<phd unit="keV">
					<lowerLevel>4.02</lowerLevel>
					<upperLevel>11.27</upperLevel>
				</phd>
				<mode>Scanning</mode>
				<activeLength unit="deg">5.542</activeLength>
			</detector>
		</diffractedBeamPath>
		<scan appendNumber="0" mode="Continuous" scanAxis="Gonio" status="Completed">
			<header>
				<startTimeStamp>2025-11-09T12:49:51-08:00</startTimeStamp>
				<endTimeStamp>2025-11-09T12:57:58-08:00</endTimeStamp>
				<author>
					<name>AutomatedUser</name>
				</author>
				<source>
					<applicationSoftware version="1.7b (136)">PANalytical Aeris Instrument Suite</applicationSoftware>
					<instrumentControlSoftware version="3.2.00000000 20240306">AERIS</instrumentControlSoftware>
					<instrumentID>950485</instrumentID>
				</source>
			</header>
			<dataPoints>
				<positions axis="2Theta" unit="deg">
					<startPosition>10.00943322</startPosition>
					<endPosition>99.99442286</endPosition>
				</positions>
				<positions axis="Omega" unit="deg">
					<startPosition>5.00471661</startPosition>
					<endPosition>49.99721143</endPosition>
				</positions>
				<commonCountingTime unit="seconds">12.495</commonCountingTime>
				<counts unit="counts">2912 2868 2947 2802 2850 2879 2952 2867 2969 2828 2904 2926 2832 2941 2809 2906 2900 2968 2892 2803 2773 2819 2807 2973 2898 2868 2837 2873 2818 2821 2886 2784 2936 2818 2909 2899 2820 2831 2898 2930 2830 2898 2928 2858 2805 2900 2924 2795 2846 2940 2718 2858 2814 2929 2842 2796 2798 2854 2897 2911 2823 2933 2759 2939 2846 2857 2879 2859 2874 2918 2927 2894 2797 2838 2929 2933 2974 2958 2884 2987 3008 2869 2928 2876 2834 2793 2919 2891 2887 2872 3003 2924 3015 2984 2856 2990 2887 2948 2836 2887 2941 2914 2809 2865 2975 2909 2849 2926 2873 2904 2930 2950 2921 2846 2907 3003 2756 2876 2877 2896 2860 2867 2917 2881 2952 2750 2915 3027 2822 2837 2917 2895 2876 2779 2882 2773 2862 2895 2822 2902 2857 2960 2867 2936 2813 2878 3070 2866 2912 2950 2943 2807 2829 2943 2910 2795 2792 2793 2919 2848 2798 2776 2888 2800 2967 2823 2885 2832 2837 2846 2746 2829 2810 2796 2966 2817 2838 2879 2833 2854 2795 2922 2878 2827 2884 2857 2839 2774 2855 2761 2857 2868 2812 2864 2697 2767 2826 2831 2755 2850 2838 2952 2729 2789 2802 2654 2807 2782 2797 2787 2819 2801 2822 2818 2813 2880 2800 2763 2821 2776 2804 2774 2735 2680 2738 2750 2888 2700 2663 2826 2761 2726 2621 2716 2775 2784 2660 2683 2730 2774 2695 2760 2688 2701 2736 2751 2702 2768 2769 2769 2749 2688 2716 2660 2801 2735 2714 2794 2763 2679 2660 2666 2674 2678 2689 2747 2622 2759 2744 2686 2715 2670 2648 2658 2710 2626 2692 2772 2721 2701 2704 2769 2669 2685 2624 2659 2703 2653 2695 2740 2775 2657 2766 2735 2593 2691 2692 2626 2637 2634 2651 2700 2728 2628 2665 2661 2655 2665 2725 2720 2726 2657 2752 2738 2719 2741 2675 2625 2701 2672 2654 2667 2641 2728 2650 2677 2687 2676 2680 2611 2724 2633 2628 2660 2665 2647 2696 2715 2709 2684 2612 2728 2684 2647 2669 2693 2692 2632 2666 2663 2766 2690 2691 2720 2704 2729 2668 2580 2696 2710 2634 2668 2692 2632 2746 2581 2642 2710 2624 2594 2645 2655 2735 2722 2594 2729 2671 2603 2673 2796 2627 2643 2700 2701 2700 2706 2601 2649 2681 2649 2662 2850 2585 2685 2674 2757 2750 2628 2658 2676 2668 2772 2802 2739 2730 2718 2685 2665 2716 2692 2736 2784 2643 2817 2759 2843 2805 2785 2816 2818 2824 2864 2821 2764 2778 2854 2956 2793 2817 2778 2884 2889 2972 2913 3022 3036 3102 3084 3135 3084 3211 3193 3125 3331 3323 3402 3310 3456 3436 3588 3656 3662 3809 3886 3868 3980 3890 3962 4069 4112 4156 4034 3920 3890 3913 3878 3824 3822 3880 3635 3659 3643 3586 3574 3534 3575 3557 3419 3588 3460 3538 3551 3459 3510 3501 3493 3460 3516 3412 3322 3357 3382 3510 3237 3368 3233 3258 3219 3158 3143 3128 3069 3080 2992 2884 2955 2994 2832 2998 2881 2848 2909 2876 2901 2927 2933 2818 2777 2865 2726 2809 2808 2729 2836 2844 2761 2806 2747 2819 2803 2723 2832 2751 2608 2805 2844 2701 2755 2762 2810 2759 2775 2729 2781 2724 2736 2707 2708 2647 2685 2707 2809 2798 2646 2764 2696 2703 2727 2748 2660 2650 2798 2657 2735 2628 2706 2745 2730 2685 2778 2751 2772 2758 2718 2752 2846 2722 2680 2718 2736 2856 2700 2740 2695 2638 2744 2708 2628 2664 2773 2682 2718 2759 2795 2682 2660 2796 2710 2810 2725 2816 2753 2664 2640 2717 2662 2770 2706 2689 2690 2743 2640 2674 2790 2634 2710 2778 2661 2633 2694 2659 2648 2722 2748 2756 2697 2697 2586 2694 2689 2611 2713 2778 2759 2768 2674 2732 2724 2775 2793 2654 2782 2732 2737 2706 2719 2693 2752 2824 2706 2782 2830 2847 2792 2882 2799 2858 2913 2792 2978 2866 2912 2983 2954 2968 2888 3009 3128 3006 2907 2993 3027 3001 3045 3036 3007 2977 2934 2906 2930 2871 2854 2962 2971 2945 2812 2923 2901 2866 2799 2901 2962 2834 2873 2886 2856 2887 2941 2749 2922 2805 2842 2839 2880 2790 2799 2823 2843 2846 2785 2828 2798 2669 2753 2800 2791 2800 2621 2760 2684 2718 2775 2710 2725 2772 2659 2665 2765 2680 2756 2691 2636 2633 2684 2615 2692 2532 2656 2748 2751 2709 2664 2722 2805 2620 2664 2638 2711 2767 2692 2754 2772 2705 2791 2688 2758 2741 2644 2743 2692 2712 2612 2732 2663 2667 2694 2697 2770 2760 2653 2655 2712 2680 2703 2662 2722 2672 2706 2663 2632 2757 2685 2685 2623 2651 2654 2635 2703 2680 2685 2689 2742 2621 2705 2705 2689 2651 2630 2633 2708 2697 2657 2693 2675 2707 2764 2733 2674 2634 2764 2662 2627 2699 2802 2692 2743 2729 2800 2710 2711 2695 2607 2814 2659 2763 2624 2756 2651 2617 2725 2734 2715 2779 2671 2667 2668 2687 2640 2752 2630 2683 2619 2620 2644 2634 2630 2702 2702 2735 2686 2708 2607 2693 2659 2657 2736 2768 2670 2699 2656 2618 2668 2628 2665 2746 2700 2743 2641 2749 2671 2656 2646 2646 2661 2719 2674 2717 2689 2706 2751 2721 2721 2655 2714 2602 2681 2812 2758 2768 2686 2729 2775 2780 2697 2712 2709 2657 2658 2669 2725 2621 2592 2725 2681 2685 2731 2695 2718 2657 2645 2702 2665 2656 2622 2730 2661 2663 2683 2716 2715 2707 2664 2793 2688 2693 2590 2558 2649 2699 2732 2716 2663 2791 2684 2704 2609 2704 2722 2764 2718 2693 2720 2750 2637 2643 2648 2631 2717 2626 2713 2723 2703 2642 2744 2621 2799 2712 2748 2681 2715 2759 2694 2836 2657 2699 2701 2695 2723 2734 2701 2702 2654 2704 2648 2689 2769 2563 2708 2697 2684 2674 2682 2667 2709 2747 2580 2775 2703 2688 2648 2705 2754 2730 2779 2721 2767 2632 2765 2640 2715 2697 2690 2604 2651 2691 2780 2697 2743 2733 2735 2721 2757 2634 2778 2607 2687 2663 2676 2714 2680 2759 2775 2689 2823 2728 2718 2787 2686 2718 2775 2759 2700 2689 2792 2663 2578 2631 2676 2652 2636 2644 2670 2644 2671 2582 2683 2718 2749 2808 2743 2603 2580 2642 2765 2646 2701 2649 2684 2700 2741 2711 2743 2692 2721 2752 2722 2673 2794 2626 2774 2603 2739 2667 2817 2621 2708 2781 2801 2625 2717 2610 2798 2629 2620 2595 2716 2668 2711 2683 2736 2731 2721 2685 2720 2762 2650 2721 2708 2696 2756 2746 2689 2726 2668 2708 2684 2713 2711 2605 2732 2719 2758 2714 2703 2731 2641 2695 2734 2701 2695 2712 2766 2710 2651 2650 2652 2744 2627 2737 2756 2707 2610 2699 2729 2771 2771 2730 2735 2742 2695 2809 2680 2800 2600 2695 2741 2849 2664 2747 2603 2619 2661 2691 2690 2689 2718 2746 2764 2654 2735 2667 2732 2646 2714 2673 2755 2626 2663 2727 2737 2662 2728 2770 2827 2716 2705 2771 2701 2725 2755 2688 2724 2736 2740 2640 2687 2809 2691 2683 2762 2654 2726 2799 2783 2699 2652 2678 2735 2633 2852 2682 2695 2713 2740 2708 2611 2766 2713 2697 2814 2666 2720 2756 2672 2683 2750 2729 2749 2726 2711 2699 2775 2733 2729 2741 2777 2674 2789 2574 2754 2660 2764 2752 2699 2766 2779 2719 2836 2658 2752 2802 2736 2722 2740 2760 2731 2715 2667 2688 2746 2698 2648 2693 2650 2720 2769 2736 2675 2767 2664 2717 2749 2704 2737 2683 2703 2728 2633 2729 2745 2712 2658 2601 2744 2746 2707 2712 2799 2792 2627 2617 2793 2719 2656 2692 2613 2734 2743 2794 2623 2658 2667 2753 2732 2720 2801 2743 2705 2840 2774 2719 2728 2663 2757 2842 2681 2811 2833 2724 2818 2656 2686 2626 2742 2791 2794 2716 2737 2750 2775 2795 2782 2730 2749 2747 2817 2794 2809 2739 2848 2864 2826 2774 2889 2794 2927 2861 2879 2835 2864 2847 2978 2956 2992 2960 2973 2854 3050 2975 3061 2976 2918 2994 3070 3163 3121 2976 3024 3093 3047 3003 2993 3024 2958 2886 2886 3000 2990 3016 2928 2847 2846 2976 2984 2916 2918 2828 2954 2875 2805 2899 2967 2749 2854 2781 2765 2927 2893 2888 2972 2874 2805 2766 2839 2886 2900 2754 2784 2827 2864 2796 2866 2801 2709 2737 2705 2654 2822 2759 2682 2701 2729 2724 2752 2788 2730 2677 2791 2664 2757 2764 2651 2685 2718 2715 2780 2731 2747 2773 2720 2733 2613 2654 2764 2781 2756 2851 2792 2683 2700 2690 2681 2691 2785 2804 2722 2777 2723 2724 2736 2826 2724 2778 2721 2651 2712 2632 2738 2650 2762 2761 2871 2720 2760 2813 2653 2701 2682 2645 2670 2695 2753 2710 2668 2769 2802 2695 2840 2729 2723 2717 2723 2695 2690 2815 2732 2739 2798 2806 2737 2701 2754 2678 2717 2747 2786 2662 2755 2690 2619 2751 2681 2737 2687 2805 2786 2724 2647 2703 2769 2692 2801 2728 2767 2827 2782 2684 2723 2848 2781 2846 2641 2707 2640 2662 2738 2694 2683 2742 2746 2617 2677 2719 2701 2624 2717 2722 2763 2824 2714 2632 2754 2642 2798 2709 2685 2788 2766 2718 2688 2741 2807 2804 2755 2669 2711 2713 2713 2736 2751 2701 2675 2675 2687 2663 2737 2734 2771 2692 2587 2778 2858 2686 2717 2770 2835 2706 2811 2705 2723 2699 2813 2744 2647 2860 2746 2712 2755 2713 2734 2712 2857 2696 2706 2754 2765 2760 2714 2724 2727 2713 2715 2865 2759 2815 2742 2779 2794 2672 2832 2750 2767 2815 2762 2769 2777 2761 2740 2800 2872 2730 2655 2840 2786 2771 2765 2751 2781 2777 2755 2833 2776 2778 2745 2768 2748 2692 2746 2716 2688 2630 2756 2689 2829 2831 2805 2833 2713 2720 2818 2759 2714 2678 2657 2730 2645 2726 2722 2750 2762 2772 2756 2724 2729 2781 2777 2881 2700 2879 2720 2756 2745 2834 2824 2750 2827 2707 2784 2754 2760 2781 2765 2825 2813 2814 2933 2802 2785 2781 2794 2721 2798 2801 2753 2701 2787 2763 2792 2829 2917 2790 2882 2807 2920 2849 2823 2743 2898 2787 2823 2824 2903 2906 2803 2919 2889 2812 2897 2941 2917 2898 3067 3029 2998 3022 3042 3111 3113 3156 3154 3174 3252 3222 3193 3193 3275 3387 3207 3281 3407 3303 3473 3298 3416 3448 3455 3538 3538 3597 3545 3582 3532 3512 3565 3637 3581 3554 3579 3623 3712 3496 3472 3486 3527 3395 3431 3313 3297 3325 3243 3378 3208 3196 3372 3323 3419 3255 3241 3212 3182 3196 3295 3217 3224 3232 3144 3157 3167 3107 3040 2954 3074 3110 2971 3080 2925 3026 2933 2803 2900 2981 2934 2933 2945 2999 2965 2904 2888 2902 2921 2911 2885 2775 2874 2930 2831 2944 2911 2864 2829 2921 2811 2848 2971 2896 2933 2965 2933 2943 2981 3036 2925 2978 2996 3032 2975 3098 2941 2976 3126 3061 3132 3144 3173 3260 3253 3431 3284 3439 3424 3624 3470 3448 3721 3763 3707 3710 3851 3867 4026 3938 3843 3984 3906 3661 3896 3935 3837 3911 3775 3793 3898 3724 3869 3715 3651 3812 3727 3785 3811 3671 3715 3629 3694 3638 3722 3608 3606 3717 3533 3497 3546 3504 3454 3449 3406 3529 3438 3342 3374 3405 3196 3210 3195 3198 3171 3065 3140 3069 3162 3167 3111 3063 2998 3095 3052 3021 2960 3057 2995 3018 2997 2885 3047 2909 2877 2892 3022 2904 2941 2864 2897 2905 2923 2872 2853 2802 2887 2905 2855 2824 2848 2921 2858 2788 2877 2842 2732 2874 2871 2871 2787 2978 2781 2931 2846 2810 2811 2731 2838 2781 2875 2758 2762 2817 2782 2777 2872 2822 2822 2793 2826 2804 2884 2835 2844 2771 2816 2734 2882 2802 2725 2873 2759 2755 2790 2893 2826 2800 2793 2824 2780 2807 2758 2848 2740 2853 2818 2784 2806 2828 2794 2763 2837 2761 2813 2785 2803 2858 2826 2760 2813 2821 2840 2793 2864 2820 2841 2783 2918 2834 2882 2899 2739 2743 2729 2932 2862 2786 2793 2868 2853 2710 2819 2732 2801 2789 2785 2802 2738 2802 2803 2849 2879 2810 2894 2774 2866 2812 2818 2813 2792 2836 2920 2943 2873 2846 2867 2760 2744 2828 2833 2849 2917 2868 2894 2822 2840 2897 2900 2763 2907 2751 2722 2845 2829 2759 2952 2913 2804 2933 2776 2785 2913 2913 2806 2954 2982 2908 2832 2909 2889 2901 2923 2878 2959 2967 2875 2886 2933 2800 2900 2970 2980 2948 2904 2950 2786 2821 2973 2880 2932 3018 2901 3014 2919 2916 2873 2933 2928 2990 2882 2959 2959 2846 2918 2959 2964 2958 2828 2925 2874 2943 2989 2941 2995 2870 2933 2932 2826 2925 2873 2866 2929 2989 2942 2890 3025 2966 3033 2815 2855 2936 2828 2867 2832 2856 2887 2919 2945 2911 2927 2862 2929 2959 2946 3002 2886 2863 2952 2905 2882 2973 3008 3018 3000 2958 2851 2917 2998 2877 2916 2920 3012 2883 2973 2886 2956 2845 2933 2993 2955 2946 2972 2950 2936 2935 2919 2854 2938 3038 2901 2884 2941 2851 2935 2943 2983 2948 2980 2999 2954 2929 2981 2995 2908 2914 3018 2947 3011 2927 2902 3038 3011 2997 3048 2934 3011 3011 3075 2989 3107 2993 3082 3048 3049 3063 3025 3099 3254 3024 3147 3106 3117 3168 3136 3088 3110 3093 3253 3201 3274 3214 3198 3156 3318 3320 3267 3315 3338 3402 3402 3492 3558 3689 3563 3592 3601 3652 3794 3848 4004 3986 4093 4260 4254 4345 4351 4496 4561 4770 4747 4856 4984 5052 5142 5184 5421 5408 5416 5614 5532 5526 5686 5790 5751 5792 6002 5913 6073 6132 6200 6490 6292 6313 6530 6595 6661 6725 6886 6836 6686 6778 6886 6771 6718 6541 6489 6328 6352 6304 6016 5911 5869 5739 5719 5457 5419 5404 5425 5206 5164 5108 5057 5128 5073 4883 4774 4748 4748 4677 4608 4508 4634 4401 4328 4316 4257 4164 4121 3895 3830 3815 3700 3691 3625 3624 3495 3459 3431 3341 3270 3305 3255 3293 3190 3102 3225 3131 3058 3075 3034 3081 3027 3111 3021 3089 3109 3011 3009 3012 2934 3070 3114 2886 3024 2913 3078 2973 2925 2923 2955 2959 2853 2949 2918 2920 2890 2892 2942 2921 2915 2916 2902 2956 2945 2903 2904 2920 2899 3012 2969 2928 2878 2945 2945 2974 2829 2855 2947 2836 2964 2921 2912 2862 2902 2885 2844 2840 2829 2827 2864 2746 2897 2810 2954 2751 2771 2826 2902 2853 2826 2861 2881 2888 2933 2877 2896 2886 2825 2936 2969 2769 2872 2894 2845 2878 2889 2814 2817 2836 2928 2830 2883 2805 2900 2894 2784 2869 2837 2822 2847 2796 2889 2853 2833 2936 2847 2804 2844 2799 2847 2730 2813 2952 2912 2842 2938 2946 2835 2798 2755 2800 2827 2877 2837 2948 2780 2844 2778 2828 2896 2805 2855 2805 2858 2784 2847 2870 2862 2846 2849 2878 2834 2774 2843 2828 2721 2951 2839 2825 2730 2768 2832 2762 2772 2831 2828 2827 2853 2797 2820 2791 2830 2862 2789 2805 2837 2840 2763 2784 2850 2820 2771 2876 2710 2823 2882 2792 2801 2804 2794 2712 2780 2772 2830 2885 2888 2853 2835 2859 2775 2706 2896 2762 2915 2780 2835 2744 2878 2788 2821 2767 2942 2715 2861 2840 2811 2838 2778 2980 2788 2884 2807 2793 2848 2866 2883 2890 2772 2881 2907 2975 3051 2951 2882 2917 3018 2992 3012 3008 3003 3040 3000 2904 3014 3097 3052 2983 3015 3089 2965 3017 2933 3048 3139 2915 3050 3024 2949 2983 3102 2939 2974 2980 2990 2998 2907 2865 2970 2868 2906 2922 2964 3015 2831 2891 2961 2941 2827 2906 2974 2942 2851 2879 2847 2899 2895 2754 2822 2838 2862 2888 2831 2815 2834 2854 3019 2830 2792 2834 2857 2809 2831 2736 2894 2913 2760 2879 2805 2810 2922 2760 2858 2870 2933 2799 2911 2933 2859 2863 2939 2817 2838 2907 2851 2863 2856 2892 2924 2876 2878 2947 2938 2976 3130 2991 3099 2949 3048 2944 3053 3002 3033 2850 2992 3008 2951 2963 2918 3094 2872 2898 3087 3039 2903 2903 2967 2823 2937 2951 3031 2913 2843 2871 2919 2919 2871 2966 2994 3051 2926 2867 2896 2858 2881 2923 2827 2790 2870 2853 2869 2877 2895 2868 2867 2910 2774 2843 2862 2860 2823 2782 2860 2897 2814 2858 2868 2830 2763 2805 2817 2905 2793 2861 2738 2821 2881 2756 2931 2818 2783 2900 2755 2842 2777 2800 2822 2859 2801 2879 2816 2772 2903 2873 2834 2805 2847 2842 2814 2760 2889 2884 2742 2744 2795 2825 2730 2921 2779 2793 2774 2829 2807 2742 2739 2800 2780 2775 2779 2791 2810 2828 2756 2849 2866 2828 2855 2846 2811 2752 2763 2800 2918 2841 2840 2689 2780 2835 2895 2788 2883 2878 2759 2789 2827 2780 2838 2798 2932 2890 2764 2887 2818 2772 2716 2911 2759 2823 2857 2699 2770 2814 2817 2862 2849 2770 2823 2932 2826 2772 2801 2868 2763 2805 2758 2753 2884 2851 2846 2849 2858 2790 2910 2815 2827 2938 2814 2763 2860 2926 2839 2914 2908 2873 2790 2732 2785 2800 2845 2842 2819 2695 2872 2878 2770 2752 2866 2874 2878 2845 2803 2917 2786 2827 2793 2882 2831 2849 2898 2815 2836 2880 2889 2915 2797 2780 2695 2841 2773 2759 2851 2849 2758 2828 2861 2759 2817 2885 2760 2744 2853 2928 2907 2847 2789 2882 2816 2868 2839 2876 2826 2793 2789 2864 2795 2790 2803 2842 2827 2801 2733 2813 2848 2862 2771 2821 2798 2899 2773 2838 2846 2863 2832 2746 2859 2814 2839 2822 2828 2819 2781 2831 2801 2855 2878 2807 2886 2798 2842 2835 2891 2821 2823 2808 2891 2836 2824 2857 2743 2900 2751 2813 2814 2832 2809 2799 2827 2787 2817 2852 2860 2906 2917 2879 2841 2833 2894 2820 2804 2773 2801 2801 2865 2883 2895 2845 2837 2935 2891 2788 2754 2916 2814 2811 2758 2814 2922 2892 2792 2832 2805 2925 2891 2743 2895 2948 2824 2946 2927 2952 2859 2872 3038 2875 2838 2989 2906 2877 2921 2934 2928 2972 2918 2943 2956 2969 2905 2868 2995 2975 3007 2887 2935 2932 2936 2879 2882 2952 2993 2971 2969 2981 2949 2873 2948 2867 2943 2771 2960 2872 2834 2950 2872 2820 2866 2956 2924 2961 2826 2766 2882 2905 2825 2903 2916 3008 2907 2890 2868 2937 2802 2809 2830 2732 2779 2758 2843 2887 2876 2908 2896 2865 2802 2841 2846 2945 2899 2836 2779 2877 2865 2971 2911 2867 2850 2894 2902 2933 2902 2830 2875 2950 2863 2750 2742 2799 2895 2900 2822 2877 2823 2823 2889 2806 2822 2849 2938 2875 2786 2911 2943 2889 2831 2879 2814 2790 2847 2835 3016 2825 2855 2907 2927 2867 2863 2909 2889 2890 2909 2932 2848 2764 2934 2846 2882 2887 2865 2819 2916 2784 2810 2776 2934 2821 2872 2851 2758 2872 2795 2862 2818 2875 2794 2852 2855 2891 2813 2838 2869 2833 2854 2852 2892 2891 2952 2848 2783 2850 2916 2847 2903 2819 2814 2926 2973 2878 2921 2894 2806 2886 2852 2874 2907 2809 2792 2844 2836 2875 2870 2904 2778 2834 2788 2875 2887 2866 2913 2855 2808 2911 2872 2884 2829 2856 2786 2879 2860 2826 2920 2856 2818 2860 3022 2901 2932 2931 2926 2854 2927 2959 2870 2939 2784 2892 2900 2964 2941 2850 2881 2878 2934 2943 2974 3024 2937 2953 2966 3040 3012 2988 3002 2963 2890 3009 3027 3143 3058 3108 3053 3099 3116 2978 3031 3065 3051 3138 3038 3051 3098 3158 3160 3236 3137 3114 3139 3157 3115 3205 3180 3172 3246 3105 3226 3176 3100 3290 3187 3322 3274 3282 3379 3170 3172 3290 3202 3261 3185 3197 3180 3288 3296 3190 3059 3149 3165 3113 3205 3126 3147 3209 3127 3042 3086 3211 3074 3145 3049 3057 3033 3034 3137 3065 3034 2953 3012 3041 2917 3046 2955 2995 3008 3057 3067 2966 2956 2980 2899 3009 3005 3022 2848 2887 2894 2917 2938 2841 2887 2861 2822 2996 2956 2808 2918 2928 2934 2924 2946 2931 2752 2893 2957 2909 2846 2803 2923 2859 2853 2925 2891 2852 2810 2964 2874 2835 2897 2929 2847 2942 2946 2875 2823 2869 2895 2915 2849 2917 2781 2878 2830 2921 2821 2867 2861 2790 2854 2925 2808 2866 2781 2863 2790 2884 2784 2850 2917 2968 2944 2857 2740 2871 2867 2781 2957 2840 2784 2859 2818 2943 2778 2814 2882 2812 2860 2916 2925 2886 2762 2860 2814 2928 2883 2891 2898 2976 2922 2894 2794 2890 2887 2922 2867 2903 2971 2872 2874 2817 2990 2890 2862 2963 2911 2921 2869 2827 2900 2881 2956 2908 2841 2852 2796 2806 2896 2802 2850 2841 2789 2822 2890 2853 2933 2909 2862 2937 2897 2865 2831 3001 2859 2848 2791 2906 2826 2752 2871 2834 2895 2782 2976 2785 2800 2862 2922 2945 2877 2917 2861 2883 2876 2838 2883 2819 2892 2872 2902 2896 2915 2945 2782 2844 2919 2971 2877 2855 2832 2909 2900 2830 2906 2905 2917 2914 2794 2916 2871 2836 2893 2845 2854 2854 2877 2958 2835 2888 2780 2957 2894 2853 2935 2931 2934 2845 2878 2780 2836 2828 2894 2929 2914 2920 2897 2862 2969 2909 2888 2876 2863 2964 2903 2901 2890 2912 2898 2910 2799 2886 2963 2955 2919 2938 2823 2974 2854 2882 2810 2946 2946 2997 2917 2932 2983 2941 2854 2823 2922 2909 2977 2972 3014 2937 2915 2849 2931 2968 2952 2937 2904 2890 2935 2955 3033 3037 2949 2996 2976 2957 3008 2986 2926 2939 2976 2922 2869 2883 3048 2904 2960 2981 2994 3006 3103 3094 3009 3045 3119 3113 3148 3177 3039 3088 3192 3115 3141 3119 3173 3091 3235 3296 3250 3153 3214 3229 3147 3336 3243 3262 3287 3290 3403 3464 3441 3393 3519 3472 3488 3534 3671 3712 3668 3607 3795 3860 3952 3986 4073 4097 4229 4264 4369 4316 4560 4623 4571 4658 4675 4559 4636 4810 4720 4659 4833 4703 4706 4673 4629 4631 4766 4629 4577 4805 4668 4659 4666 4475 4525 4539 4634 4613 4569 4450 4506 4527 4351 4508 4383 4613 4356 4390 4532 4417 4119 4196 4304 4143 4022 4027 3871 3961 3873 3770 3742 3754 3731 3822 3712 3583 3623 3593 3553 3516 3472 3328 3456 3509 3376 3330 3403 3417 3321 3399 3378 3319 3280 3307 3205 3168 3155 3210 3256 3080 3119 3180 3188 3110 3114 3031 2981 3068 3038 2990 2949 3055 3055 2902 2992 2992 3029 2948 2958 2977 2964 3070 2919 3024 2955 2977 3058 2963 2991 2932 2998 2994 3067 3039 3069 3021 2937 2948 2966 3057 2958 3039 3022 2906 2943 2972 2929 3110 3026 2951 3032 2855 2986 3059 2925 2978 2938 2961 2872 2898 3073 2948 3086 2940 2993 2910 2992 2970 2995 3018 2988 2989 2977 2864 3078 2985 3049 2944 2891 2902 3013 3087 2846 2979 3003 2912 2923 2882 3008 3089 2909 2943 2908 2888 2901 3043 2976 3001 2970 2946 3011 2856 2944 2885 3010 3077 2892 2958 2972 2897 2880 3048 2982 2895 2961 2963 2936 2929 3007 3021 2917 3003 3015 2957 3001 2992 2938 3021 2984 3000 2982 3003 3009 2916 3063 2990 3060 3054 3086 3145 2996 3123 3074 2984 3058 3113 3157 3120 3205 3009 3083 3152 3188 3189 3136 3109 3054 3148 3159 3243 3124 3172 3233 3212 3146 3119 3208 3147 3296 3163 3298 3196 3231 3170 3099 3181 3179 3060 3186 3224 3205 3169 3193 3099 3150 3183 3177 3148 3173 3149 3195 3054 3136 3156 3071 3192 3073 3247 3117 3069 3130 3048 3150 3006 3043 3180 3110 3120 3070 3078 3049 3107 2973 3028 3063 3114 3037 2976 2992 3025 2944 3022 3034 3013 2941 2965 2963 2995 3024 2940 3064 2992 2964 3042 2998 2983 2908 2888 3009 2893 2965 2940 2950 2966 3028 3002 2963 3067 3025 2925 2980 2946 2883 2981 2906 2904 2973 3082 3013 2928 3093 2858 2948 2990 3098 2901 2977 2928 3076 2903 2964 2966 2938 2901 2959 2897 2869 3165 2974 2985 2844 3001 2914 2884 2926 2938 3006 2843 2926 2854 2954 2856 2904 2906 2846 2882 2951 2969 2950 2877 2946 2892 2875 2930 2978 2935 2932 2967 2956 2881 2842 2903 2957 2907 2846 2833 2980 2871 2843 2877 2856 2919 2872 2814 2887 2900 2834 2864 2956 2919 2807 2954 2846 2855 2876 2854 2826 2913 2855 2850 2837 2849 2889 2780 2819 2857 2929 2894 2863 2914 2832 2870 2811 2877 2872 2876 2930 2960 2837 2884 2887 2815 2885 2932 2896 2884 2916 2887 2877 2993 2855 2901 2831 2791 2807 2920 2867 2898 2909 2863 2988 2906 2839 2943 2877 2886 2881 2841 2884 2901 2896 2908 2823 2761 2838 2894 2949 2862 2829 2968 2876 2899 2779 3004 2829 2891 2840 2750 2884 2778 2957 2877 2862 2878 2912 2923 2872 2893 2914 2946 2859 2888 2904 2900 2918 3004 2898 2868 2914 2986 2946 2886 2932 2832 2884 2851 2883 2793 2892 2816 2794 2848 2885 2840 2979 2814 2819 2898 2910 2869 2921 2932 2887 2996 2776 2865 2908 2846 2833 2870 2910 2878 2916 2865 2844 2905 2929 2972 2860 2812 2832 2924 2909 2908 2941 2934 2860 2836 2830 2896 2974 2886 2859 2851 2900 2791 2846 2889 2869 2839 2856 2949 2857 2955 2987 2906 2916 2928 2882 2918 2946 2904 2910 2890 2887 2857 2957 2871 2962 2879 2877 2932 2895 2861 2930 2883 2912 2959 2967 2877 2904 2969 2854 2925 2856 2933 2912 2937 3005 2886 2894 3063 2981 2907 2837 3000 2976 2887 2859 3026 3029 2887 2923 2914 3087 2947 2925 2955 2960 2970 2831 3021 2922 2968 2933 2934 2994 2852 2874 2956 2851 2967 2996 3004 2973 2799 3008 3025 2908 2944 2929 2981 2931 2915 2965 3072 2894 2958 2900 2950 2971 2868 2961 2940 2809 2967 3051 2900 2890 2833 2812 2975 2962 2879 2945 2898 2934 2980 2855 2909 2943 2949 2956 2884 2852 2930 2863 2957 2946 2880 3024 2871 2884 2923 2879 2863 2870 2886 2873 2858 2911 2921 2910 2956 2946 3026 2963 2912 2841 2950 2894 2937 2909 2829 2891 2936 2886 2935 2849 2923 2858 2865 2878 2840 2835 2854 2907 2964 2916 2882 2945 2948 2972 2889 2856 2851 2812 2928 2850 2869 2835 2970 2945 2939 3038 2891 2946 2889 2900 2954 2921 2920 2862 2894 2872 2953 2854 2895 2976 2916 2853 2861 2906 2878 2896 2911 2903 2797 2985 2904 2988 2852 2865 2930 2875 2928 2950 2875 2963 2870 2932 2882 2797 2931 2903 2964 2930 2944 2959 2959 2993 2956 2916 2949 3066 2927 2937 2871 3046 2878 2933 2930 3025 2964 2952 2986 2915 3048 2901 2888 2954 2988 2976 3020 2946 3121 2956 2924 2822 3079 2911 2901 3074 2921 2985 3000 3146 3017 3027 3014 2940 2969 2963 3005 2975 3030 2909 3051 2957 2967 2989 3010 2994 3034 2942 3018 2994 3025 3033 2978 2995 2992 3115 3113 3068 3010 2973 3030 3047 3012 3066 3064 3082 3031 3030 3009 3130 3037 3079 3152 3103 2966 3114 3039 3195 3072 3156 3109 3068 3174 3002 3101 3072 3147 3164 3107 3119 3062 3178 3173 3071 3037 3082 3205 3142 3163 3104 3052 3046 3226 3208 3113 3117 3071 3132 3097 3151 3149 3190 3165 3165 3115 3054 3205 3089 3059 3076 3110 3203 3013 3143 3187 3051 3028 3135 3156 2990 3133 3054 3101 3083 3055 3002 3090 3010 3109 3146 2984 3045 3008 3114 3067 3019 3105 2979 3071 3039 3116 2988 3075 2964 3052 2942 2997 2969 2926 2938 2982 2891 2992 2827 2951 2884 3009 2838 2924 3000 2923 2907 3017 2928 2895 3043 2869 2880 2965 2882 2873 2930 2968 3033 2832 2872 2953 3011 2872 2928 3045 2900 2976 2884 2943 2982 2958 2953 2951 2996 2912 2988 2982 3018 2982 2909 2893 2867 3011 3000 2829 2905 3004 2971 2932 2881 2942 2866 3001 2963 2869 2922 2959 2868 2965 2879 2890 2988 2922 3013 2933 2977 2930 2932 2981 2913 2945 2918 2934 2979 3032 2833 3008 3021 3002 2945 2913 2961 2883 2921 2921 2984 3047 2941 2956 3044 2990 2963 2980 3009 3022 2991 3032 2929 2900 2992 3011 2883 2971 3042 3048 2938 2853 2940 2881 2980 2889 3088 2996 3020 2997 2932 2903 2907 2985 2935 3032 3005 2974 3011 3059 3000 3038 2903 2953 2954 2964 2994 2900 2939 2990 3029 2913 2952 2985 3037 3017 2962 3078 2960 3021 3032 2928 3009 2946 3064 3019 2985 3000 2912 3043 3084 3080 3012 3007 2963 3058 2980 3088 3131 3128 3066 3163 3064 3164 3149 3104 3162 3074 3194 3162 3215 3169 3412 3352 3292 3291 3261 3260 3225 3297 3302 3406 3313 3298 3311 3191 3332 3195 3293 3384 3420 3404 3322 3358 3299 3427 3425 3385 3466 3393 3391 3434 3439 3404 3311 3517 3406 3356 3410 3473 3261 3208 3361 3244 3285 3297 3303 3281 3202 3277 3351 3230 3260 3163 3209 3223 3226 3126 3071 3217 3066 3190 3042 3054 3065 2988 3069 3083 3059 3088 3117 2983 3062 3019 3126 3018 3116 3070 3153 3082 3021 3038 3059 3042 3008 3034 2930 2988 3013 2918 2921 3026 2986 3014 3050 2933 3079 2894 2857 2924 2883 2948 2909 2902 2988 2958 2979 2991 2855 3006 2942 2946 2916 3024 2996 2932 3024 3030 2974 2900 2963 2971 2902 2924 2959 2889 2874 2969 2834 2995 2906 2963 2876 2948 2985 2907 2899 2887 2968 2927 2806 2977 2909 2900 2977 2957 2944 2979 3003 2823 2911 2965 2954 2927 2926 2943 2976 2997 2991 2970 2976 2902 3023 3085 2924 2850 2927 2979 3021 2964 2957 2874 2908 2957 3040 2983 3009 2966 2911 2914 3006 3014 2939 2934 2973 2972 3041 2910 3017 2973 2957 2953 3013 2903 2934 2964 2977 3029 3031 3017 3004 3055 3035 3054 3123 3043 3015 3081 3138 3102 3016 3092 3140 3109 3037 3049 3142 3156 3056 3029 2988 3038 3025 3037 3026 3107 3080 3078 3128 3041 2954 2986 3142 2988 3026 3041 3054 3107 3115 2983 3072 3084 3115 3032 3059 3070 3079 3014 2975 3010 2999 2949 3056 3012 3075 3035 2981 3018 2993 2998 3027 3043 2990 3104 3019 3090 2950 2987 2992 2980 3064 3025 2995 2988 2924 3042 2942 3027 2866 2882 3026 2984 2895 2913 3010 3040 2922 2950 2993 2938 2868 2977 2952 2918 2933 2948 2820 2975 2952 2929 3079 2923 2968 2921 2865 2887 2931 2964 2868 2879 2982 2893 2860 2853 2957 2904 2889 2947 2856 2958 2920 2924 2967 2975 2991 2883 2855 2919 2992 2907 2889 2892 2942 2860 2978 3051 2860 2933 2934 2839 2991 2927 3000 2825 2954 2970 2900 3025 2955 3103 2932 2882 3011 2954 2917 2828 2926 2861 2915 2788 2896 2846 2814 2859 2855 2929 2928 2975 2900 2869 2918 2841 3028 2848 2893 2956 2859 2900 2827 2943 2864 2878 2884 2869 2993 2868 2966 2807 2930 2992 2992 2944 2860 2873 2813 2919 2935 2950 2877 2923 2885 2954 2914 2931 2968 2977 2860 2896 2941 2894 3006 2771 2897 2920 2977 2929 2872 2800 2874 2909 2936 2984 2895 2883 2967 2943 2957 2931 2937 2904 2947 2918 2961 2948 2902 2861 2865 2861 2969 2880 2930 2896 2918 2928 2950 2996 2933 2934 2988 2886 2919 2844 2925 2818 2842 2919 2904 2903 3033 2916 2909 2927 2865 2897 2931 2926 2897 2930 2919 2811 2938 2913 2964 2895 2953 2928 2891 2998 2874 2855 2910 2892 2785 2951 2920 2900 2894 2889 2896 2898 2911 2834 2835 2921 2941 2944 2897 3007 2873 2942 2872 2956 2920 2914 2887 2911 2981 2939 3035 2940 2897 2999 2896 3040 2972 2885 2839 2942 2955 2868 2893 2961 2911 2947 2927 2839 2906 2977 2934 2918 2915 2857 3025 2938 3008 2931 3002 2804 2997 2924 2995 2886 2990 2956 2926 2962 2823 2989 2962 3012 2985 2970 2941 2905 2930 2938 2952 3005 2932 2822 2920 3038 3021 2960 3084 2884 2888 3041 3007 2929 2942 2893 2896 2881 2979 2931 2977 2985 2928 2979 2960 2925 2969 2844 3027 3001 2927 2875 2987 2952 2894 3008 2878 2869 2948 2973 2880 3078 3016 2962 2922 2893 2920 2918 3010 2803 2880 2936 3063 2889 2894 3017 2950 2903 2970 2801 2974 2983 2860 2941 2851 3077 2938 3108 2919 2910 2934 2876 2920 2885 2780 2902 2879 2921 2961 2858 2940 3002 2920 3007 2818 2929 2950 2920 2929 2924 2859 2968 2862 2909 2743 2961 2894 2954 2946 2959 2953 2989 2842 2937 2932 2870 2913 2850 2948 2880 2948 2880 2945 2908 2941 2957 2931 2906 2904 2900 2810 3001 2952 2937 2993 2957 2902 2899 2862 2931 2941 2926 2919 2947 3043 2944 2877 2915 2899 3021 2914 3008 2930 2923 2994 3039 2869 3043 2918 2999 2987 3014 2993 2901 2885 2990 2951 2892 3007 3017 2977 3076 2906 2890 3036 3121 3025 3067 2976 3060 3015 2968 2996 2982 3002 2952 2970 2988 3057 3030 2974 3042 3000 3010 2935 2986 3038 2983 3110 3000 2959 3037 3015 2938 3075 2913 2979 3063 2963 3016 2929 3035 2971 2994 2977 2913 2910 2992 2859 3114 2920 2955 2973 2936 2952 2991 3040 2919 2973 3061 2943 2947 2993 2926 2955 2945 2961 2978 2916 3093 3023 2931 2909 2947 2918 2939 2924 2965 2988 3004 2915 2934 3016 2902 2906 2893 2895 2922 3003 3016 2946 2857 2952 2953 2962 3024 2899 2876 2905 2928 3053 2878 2985 2881 2978 2888 2926 3009 2885 3041 2993 2976 3035 2968 3019 2909 2865 2987 2993 2897 2941 2881 2919 2980 2986 2893 2936 2930 2963 2962 2911 2936 2954 2944 2889 2955 2935 2955 2917 2855 2882 2919 2930 2999 2914 2976 2866 2849 2937 2951 2990 2920 2914 2972 2919 2861 2962 3012 2862 2987 2910 2890 2901 2894 2856 2964 2939 2909 3009 2928 2964 2896 2791 2890 2898 2976 2960 2923 2929 3062 2901 2929 2924 2986 2941 2945 2811 2959 2921 2982 2817 2891 2949 2943 2978 2970 2888 2944 2970 2907 2900 2978 2975 2975 2961 2976 2906 2867 3011 2938 2875 2960 2978 2911 2922 2967 2915 2856 2931 2970 2908 2943 2977 2963 2921 2911 2920 2911 2862 2978 3009 2974 2906 2946 2985 3003 2955 2983 2943 2885 2965 3027 2961 2872 2984 2870 2985 2951 2921 2925 3031 2924 2944 2986 3002 2913 2947 2967 2995 3014 3067 3042 3002 3007 2992 2963 2927 3024 3032 2975 2894 3040 2902 2986 2966 3085 3044 2917 3079 3048 2983 2988 2906 2903 3040 2978 2927 2920 2941 2942 2949 2977 3055 3068 3018 3127 3000 3017 2921 3095 3042 3012 3041 3029 3005 2971 3051 3062 2982 3055 3025 3023 3029 3010 3097 3113 3028 3068 3000 3087 3045 3068 2982 3088 3050 3080 3012 3093 3067 3019 2982 3018 3026 3089 3113 3062 3131 3039 3121 3074 3015 2962 3117 3087 3077 3020 3010 3004 3077 3048 3018 3025 3084 2973 3073 2936 3007 3068 3133 3009 3008 3024 3087 3027 3015 3094 3035 2970 3083 3058 3027 3039 3081 3070 3080 3037 3045 3069 3070 3112 2995 2992 3008 2924 2954 3057 2925 2958 3035 3006 3028 2958 2944 3002 3000 2944 2977 2959 2918 2946 3029 3018 2879 2926 2944 3083 3007 2977 2966 2879 2894 2880 2926 3042 2913 2919 2999 2919 2997 2911 2948 2896 3019 3003 2950 2910 2946 2944 2998 3000 2986 3014 3094 2983 2865 3012 3041 2895 2943 2962 2939 2929 2903 2878 2895 2899 2971 2827 2976 2993 2913 2929 3001 2959 2929 2983 2958 2913 3014 2900 2884 2929 3030 2868 2947 2933 2914 2993 2987 2949 2953 2995 3034 2921 3028 2938 2982 2987 2926 2894 3087 2885 2977 2911 3009 2931 3025 2909 2863 2881 2993 3021 3027 2932 2915 2874 2939 2902 2932 2888 2921 2912 2915 2905 2962 2935 2903 3042 3004 2887 2951 3054 2939 2989 2944 2910 2969 2902 2882 2955 2947 2933 3000 2984 2986 2963 3026 2968 3050 3025 2986 2968 2972 2983 3035 3001 3004 2955 2902 2947 2925 2955 2953 2911 2964 2892 2927 2919 2789 3019 2982 3073 2908 2824 2940 2964 3003 2944 2956 2956 2963 2935 2925 2838 2899 2958 2842 3021 2921 3022 2968 3008 2973 3009 3023 3014 2875 2976 2961 2880 3028 2864 3009 3035 2938 3063 2969 2938 3014 2977 2976 3026 2889 2981 2994 2858 3012 3019 2960 3011 2887 3025 2909 3001 3049 2910 3084 2954 2976 2957 2866 3071 2961 2983 3001 3003 2969 3051 3019 2909 2926 3022 3013 2965 2837 3003 2887 2940 2887 2935 2945 2986 2932 2992 2986 2967 2997 2966 2929 2925 2971 2882 2941 2953 2967 2848 2902 2954 2873 2900 2955 2910 2920 3073 2981 2946 2987 2955 2960 2832 2915 2957 2913 3052 2940 3004 2991 2966 2814 2812 2904 3078 2890 2984 2952 2852 2911 2945 3005 2847 2891 2983 2879 3006 2930 2935 2960 2851 2944 2875 3030 2941 2991 2999 2968 2948 3022 2906 2964 2976 2897 3000 2961 2959 2896 2993 2960 2861 2886 2978 3038 3043 2907 2988 2944 2937 3007 2994 2950 3036 3014 2965 2962 3005 2986 2990 2886 2921 2855 3003 3092 2847 2999 2903 3054 2976 2932 2872 2978 2980 3025 3021 2881 2973 2941 3034 2924 2989 2881 2943 2955 2968 2995 3015 2947 2992 3021 2878 2937 2868 3100 2897 3079 2798 3020 3014 3024 2961 2995 3040 2999 2925 2890 3007 2988 2888 2960 2948 2998 2949 2961 3092 3048 2988 3036 3004 3033 2983 2858 2940 2994 2953 2944 2968 2923 2958 2983 2921 2918 2943 2939 2982 2931 3032 2840 3068 3060 2864 3014 3003 2891 2991 2958 2915 2939 2979 3037 2941 3043 2978 2954 2955 2990 2964 3028 2935 2949 2938 2896 2861 3009 2947 3021 2969 2903 3086 3002 2981 3017 3016 2994 2918 3026 3020 2910 2937 3036 2954 2987 2996 3070 2923 3004 2853 3006 2990 2936 2926 2991 3095 2957 2984 3043 2970 2879 2968 2959 3044 3022 2917 3019 2939 2975 3039 3089 2961 3014 2947 2906 2942 3009 3000 2937 2925 2972 3009 2964 3000 2899 2935 3050 2992 3005 2956 2944 2968 2960 3038 2996 3037 2978 2971 2931 3043 2953 2994 3015 2982 2960 2887 2909 2984 3090 2929 2855 3012 2988 2964 2983 3000 2940 2992 3008 2926 2974 2999 3003 2987 3038 3003 2983 3011 2987 3031 2956 2860 2979 3022 2988 2908 3003 3060 2959 2967 3017 3010 2857 3073 3067 2913 2953 2841 2993 2985 2981 3007 3057 2976 2954 2944 2951 2996 3003 3023 3015 3038 3039 3019 3019 3052 2959 2906 3048 2961 3032 2985 3055 3056 2908 3006 3067 3133 3158 2994 3088 3041 3070 3024 2970 3076 3085 3002 3091 3022 3016 3030 3032 3145 3054 2904 3003 3081 2998 3009 3011 3150 3019 3027 3019 3037 3034 3139 3097 2959 2998 2958 3016 3120 3042 3070 3003 3060 3026 3022 3092 3059 3098 2996 3055 3051 3137 3025 3131 3054 3066 3017 3062 3012 3010 3020 3074 3176 3037 3028 3028 3016 3092 3076 3146 3198 3107 3232 3049 3056 3016 3106 3207 3105 3133 3173 3093 3117 3083 3054 3159 3133 3134 3131 3070 3086 3041 3120 3119 3110 3129 3024 3026 3075 3080 3165 3127 3074 3158 2874 3061 3040 3049 3006 2976 3093 2987 2972 3113 3037 3257 3112 3013 3016 2990 3024 3038 2998 3049 3003 3047 3033 3079 3032 3064 3035 3113 3043 2913 3062 3128 3057 2978 3041 2989 3001 2897 2993 3056 3075 3040 3101 3004 2933 3030 3055 3050 3056 2935 3003 3020 2972 2983 3038 3070 3077 2930 3004 3087 2912 3047 2997 2986 2960 2958 3020 2980 3157 2938 3023 2999 3053 2971 3002 3017 3055 2984 3051 3050 2985 2984 3061 3131 3070 3072 3001 2923 2963 2974 3030 3002 3103 3011 2990 3023 3039 3078 2957 2980 3072 3045 3112 3086 3104 2993 2929 3018 3018 3012 3059 2976 3032 3097 3054 3034 3035 3021 3048 3085 3091 3019 2973 2975 2961 3043 3082 3104 3083 2979 3050 3059 3111 3046 3179 3125 3050 2904 3216 2969 2974 3130 3145 3050 3046 3023 3043 3110 3068 3129 3036 3157 3012 3118 3091 3150 3047 3081 3041 3135 3080 3161 3144 3029 3133 2923 3147 3086 3120 3242 3114 3040 3163 3241 3168 3195 3152 3171 3109 3203 3166 3092 3206 3191 3211 3259 3177 3230 3224 3216 3129 3275 3162 3256 3225 3279 3274 3334 3153 3335 3213 3229 3222 3265 3366 3265 3332 3330 3298 3338 3233 3207 3317 3324 3213 3263 3205 3364 3300 3256 3310 3187 3093 3279 3389 3195 3268 3202 3335 3282 3309 3326 3284 3318 3318 3201 3218 3231 3263 3256 3202 3307 3199 3269 3222 3261 3264 3219 3232 3285 3325 3264 3236 3297 3185 3248 3276 3213 3146 3220 3130 3166 3311 3225 3209 3272 3149 3161 3267 3253 3257 3210 3186 3218 3112 3186 3230 3200 3200 3039 3248 3174 3093 3156 3171 3160 3200 3116 3130 3116 3230 3165 3139 3147 3088 3127 3083 3209 3165 3122 3153 3069 3130 3007 2977 3210 3087 3168 3075 3019 3116 3043 3096 3009 3087 3114 3080 2987 3021 2991 3039 3107 3060 3028 3034 2969 3094 2909 3039 3023 2986 3115 3079 3012 2967 2947 3061 2998 3033 2998 3016 3058 2999 3180 3115 3042 3010 3099 2991 3002 3092 3005 3032 2968 3077 3095 3005 3045 3149 3026 3061 2963 3011 3074 3042 3018 3025 3096 3079 3014 2904 3020 3070 3056 3082 2989 3051 3051 3018 3145 3101 3010 3041 3024 3023 3062 3015 3062 2970 3101 3065 2969 2999 3062 2988 3053 3040 3145 3119 3048 3062 2965 2982 2993 3077 2929 3043 2942 2958 3060 2926 3099 2967 3093 2996 2961 3101 3031 3097 3053 3065 3054 2973 3053 3022 3036 3042 3099 2998 3045 3043 3081 2994 3042 3018 3062 2994 2976 2979 3124 3046 3087 3107 2986 3018 3013 3082 2982 3010 3105 3086 3006 3054 3092 3020 2951 2987 3035 3051 3081 3077 3006 2976 3114 3082 3027 2897 3023 2932 2976 3029 3126 2960 2969 3002 2969 3002 2990 3097 2971 2967 2980 2960 2980 3086 2915 3011 2910 3027 3056 2961 2928 3045 3012 3035 2943 3025 2965 2982 3000 2974 3054 3023 3074 3061 2972 3055 2954 3057 2933 3042 3058 3024 2964 3006 3030 2957 3051 3002 3051 2995 3061 2923 2993 3051 2992 3011 2994 2977 2971 3068 2992 2959 3065 3017 3031 3045 3007 2964 3055 2919 2990 2990 2998 2924 3014 3034 2935 3038 3085 2879 3056 3031 3055 3044 3004 2915 2991 2948 3034 2908 3062 2930 2979 2965 3104 3021 2945 3048 2973 3031 2945 3078 2955 3107 3001 3006 2902 3045 3020 3062 2941 2972 2993 2985 3075 2921 2963 2998 3110 3006 3054 3086 3044 3041 2945 3032 3081 2960 3001 3061 2886 3076 2915 2996 2974 2962 2934 2984 3024 3022 2960 3021 2987 2996 2949 2938 3068 3002 2973 3088 3006 2985 2960 2975 2955 2983 3079 2937 2913 2939 2937 2943 3047 2985 3058 3092 2906 3031 3036 3063 3023 3014 3019 2990 2890 3036 3095 3106 3083 3007 2993 3041 2967 2953 2975 2949 2993 3009 2943 3045 3034 2953 2980 2981 2953 2962 2963 2953 2889 3019 2969 2923 2999 3042 3013 2983 3004 2981 2909 3081 2987 2920 3039 2915 2958 3087 2981 3063 3055 2997 3050 3002 3051 2945 3008 3039 2977 2935 2983 2991 3007 2999 2968 2916 3019 2992 3068 3031 3110 2914 3058 3015 3071 2982 3064 3028 2926 3023 2943 3061 3061 2990 3066 2989 2954 3033 2974 3044 2973 2999 2942 3017 2989 2955 3099 3041 2993 2992 2991 3019 3069 2915 2980 3005 3003 3021 3016 3016 3060 2840 2951 3008 2922 2997 3030 3047 2935 2998 2988 2948 3010 2944 3085 3037 3057 3029 2961 3098 2932 2908 2999 3016 3054 3027 2957 3014 3004 3068 2998 3084 3029 3096 2983 3050 2987 3109 2881 3038 3015 2944 2985 2985 3055 2964 2964 2998 2936 3030 3127 3025 3043 3034 3046 3112 3028 3069 3007 2946 3046 3009 3005 3056 3008 3031 3135 3038 3031 3062 2886 2906 3079 2984 2956 2925 3072 3026 2943 2943 3054 3051 3017 2997 3058 3029 3057 3076 3067 2972 3032 2980 2952 3005 3084 3085 3036 3033 3137 3046 3097 3008 3115 3012 3002 3095 3094 2998 2979 3044 3003 3022 2987 3105 3002 3025 3047 3068 3002 3081 2972 2947 3078 3026 3077 3024 2959 2995 3034 3082 3107 2950 3024 3001 3070 2999 3026 2972 3039 3033 3010 2998 3100 2974 3065 3023 3058 3101 3023 3062 3099 2982 3032 3067 2914 3023 2987 2990 3005 3071 3057 3110 2969 3077 3010 3032 2999 3036 3030 3035 2900 2940 2956 3076 3055 3174 2904 3052 2985 3017 2989 3015 3094 2969 2950 3057 2958 2945 3018 2974 2974 3156 3012 3035 2987 3082 2978 3001 3028 2966 3047 2954 2955 2972 3013 3022 3082 3051 2995 2991 3072 3111 3074 2938 2994 3110 3100 3053 2958 3009 2998 2966 3049 2903 3015 2983 2915 2942 3002 2947 2994 2988 2943 2981 3075 3085 2986 2993 2980 2951 2986 2970 3045 3072 2967 3003 3012 2938 3164 2986 2962 2866 2997 3002 3008 3046 3047 3079 3045 3035 3055 2854 3064 3015 2986 2966 3076 3033 3033 2988 3052 2921 3033 3026 2947 2968 3027 2991 3004 3035 2933 2930 2885 2973 2925 2952 3035 3086 3010 2987 2998 3041 3039 2939 3046 3021 2921 2937 3044 3050 3029 3031 3030 3021 3004 2952 3070 3005 3030 3040 3080 3121 2984 3062 3124 3012 2905 3153 3063 3060 3011 3065 2998 2987 3093 2990 3011 3041 3046 3032 3048 2944 2930 3089 3018 2962 2941 2981 2953 2984 3039 3068 3020 3052 2937 3022 2997 3009 3098 2997 3062 3041 3046 3054 3010 3038 3046 3089 3099 3106 2971 2999 2984 3043 3013 3076 3142 3213 3070 3231 3119 3128 3054 3044 3019 3055 3060 3101 3139 3037 3156 2980 3156 3165 3029 3161 3151 3161 3116 3094 2989 3081 3117 3155 3103 3199 3134 3150 3079 3139 3139 3175 3162 3121 3150 3196 3147 3144 3263 3036 3192 3182 3159 3139 3123 3225 3230 3064 3097 3216 3171 3286 3183 3122 3138 3235 3176 3128 3207 3177 3092 3253 3181 3200 3191 3159 3147 3086 3252 3153 3173 3176 3303 3193 3165 3214 3148 3081 3162 3266 3206 3179 3191 3130 3064 3113 3172 3146 3118 3212 3184 3217 3180 3029 3162 3175 3281 3147 3189 3149 2980 3137 3117 3173 3158 3142 3227 3234 3053 3319 3173 3063 3141 3237 3148 3186 3077 3126 3162 3134 3086 2958 3153 3211 3105 3091 3055 3087 3095 2998 3151 3071 3052 3166 3163 3048 3058 3184 3107 3023 3077 3156 3015 2942 3039 2993 3039 3051 3063 3020 3058 3091 3120 3055 2994 3055 2987 3079 2987 2966 3132 3036 3088 3005 3124 3033 3078 3022 3055 2983 2976 3047 3048 2976 2949 2995 2984 3086 3000 3030 3069 2971 3049 2941 3042 2999 2982 3012 2968 3065 2963 3001 3087 2995 3042 3026 3011 3081 2979 3014 2972 3007 3013 3090 3052 3054 3037 3039 3027 2986 2974 2975 3045 3088 3053 3146 2927 3074 2996 3045 3050 2974 2946 3123 2953 3037 2992 3012 3046 3056 2986 3017 3019 3028 3000 3064 2987 3054 2933 2910 3036 3010 3002 2923 2945 2962 3023 3068 2872 2973 2974 3131 3031 2993 3042 3004 3040 2939 2867 2919 2942 3033 2922 2934 3015 2978 3041 2992 3044 3033 3057 3073 3012 3075 3027 3058 3033 2989 3035 3028 2973 3032 3069 2997 3058 2974 3006 2959 3049 2923 3029 3048 2945 2975 3022 2882 2986 2995 2979 2927 2986 3011 2971 2969 3003 2999 2980 2968 3007 3107 3052 3077 3014 3026 3046 3066 3047 3058 3077 2969 3049 2949 2996 2958 3021 2978 3004 3000 2980 3014 2970 3022 2984 2850 3036 2965 2990 2962 2964 3151 2874 2987 2969 3098 3043 3060 2985 2993 2991 3028 2896 3011 3041 3041 2968 2921 2987 2996 2942 2995 3011 2996 2944 2987 2963 2958 3016 2980 2988 2929 2968 2942 3053 2969 2902 2929 2949 2963 3129 2986 3040 2994 2993 2949 2884 2858 2889 2955 2892 2967 2932 3008 2942 2996 3021 3059 2994 3010 2935 2989 3084 2918 2863 2963 2933 2987 2967 2941 2995 3047 2939 2982 2924 2963 2914 2985 2977 2838 2923 2985 2977 3055 2945 3020 3048 2939 2943 3022 2994 3022 2896 3057 2953 2993 2945 3021 2955 2943 2973 3049 2949 2999 3000 2968 2965 2937 2962 2969 2983 2924 2944 2993 2947 2971 2983 2958 2947 2926 2951 2949 2933 2999 2954 2986 3072 3035 2995 3037 2999 2869 3023 2984 3038 2982 2919 3016 2964 2965 3035 2923 2932 2940 3027 3067 2971 3010 3014 3039 2994 2908 2933 2967 2953 3006 2954 2989 3001 2982 3002 3023 2863 3005 2998 3016 2991 2969 2949 3039 3080 2933 3075 3018 3010 2875 2985 2928 2994 3025 2996 2980 3000 2985 2995 2987 2964</counts>
			</dataPoints>
		</scan>
	</xrdMeasurement>
</xrdMeasurements>
