<?xml version="1.0"?>
<xrdMeasurements xmlns="http://www.xrdml.com/XRDMeasurement/2.3" xmlns:xsi="http://www.w3.org/2001/XMLSchema-instance" xsi:schemaLocation="http://www.xrdml.com/XRDMeasurement/2.3 http://www.xrdml.com/XRDMeasurement/2.3/XRDMeasurement.xsd" status="Completed" recordIdentifier="{31B1278D-670A-4684-AD28-ECE7B5AB3E1E}">
	<comment>
		<entry/>
	</comment>
	<sample type="To be analyzed">
		<id>GPSS_Li1p4Mg0p2Ni0p2Y0p6Cl4_102025_68f7253b028f64128e25d094</id>
		<name></name>
		<preparedBy></preparedBy>
	</sample>
	<xrdMeasurement measurementType="Scan" status="Completed" sampleMode="Reflection">
		<usedWavelength intended="K-Alpha 1">
			<kAlpha1 unit="Angstrom">1.5405980</kAlpha1>
			<kAlpha2 unit="Angstrom">1.5444260</kAlpha2>
			<kBeta unit="Angstrom">1.3922500</kBeta>
			<ratioKAlpha2KAlpha1>0.5000</ratioKAlpha2KAlpha1>
		</usedWavelength>
		<incidentBeamPath>
			<radius unit="mm">145.00</radius>
			<xRayTube id="1010048" name="Empyrean Cu LFF HR (9430 033 7310x)">
				<tension unit="kV">40.0</tension>
				<current unit="mA">15.0</current>
				<anodeMaterial>Cu</anodeMaterial>
				<focus type="Line">
					<length unit="mm">12.0</length>
					<width unit="mm">0.4</width>
					<takeOffAngle unit="deg">6.0</takeOffAngle>
				</focus>
			</xRayTube>
			<sollerSlit id="21010002" name="Soller slits 0.04 rad.">
				<opening unit="rad">0.0400</opening>
			</sollerSlit>
			<mask id="22031000" name="Fixed mask 13 mm">
				<width unit="mm">9.00</width>
			</mask>
			<divergenceSlit id="22120001" name="Divergence slit 1°" xsi:type="fixedDivergenceSlitType">
				<distanceToSample unit="mm">50.00</distanceToSample>
				<height unit="mm">1.52</height>
			</divergenceSlit>
		</incidentBeamPath>
		<sampleMovement xsi:type="spinningSampleMovementType">
			<spinnerRevolutionTime unit="seconds">1.0</spinnerRevolutionTime>
		</sampleMovement>
		<diffractedBeamPath>
			<radius unit="mm">145.00</radius>
			<antiScatterSlit id="22090040" name="AS slit 9 mm (PIXcel)" xsi:type="fixedAntiScatterSlitType">
				<height unit="mm">9.00</height>
			</antiScatterSlit>
			<sollerSlit id="21020003" name="Large Soller slits 0.04 rad.">
				<opening unit="rad">0.0400</opening>
			</sollerSlit>
			<filter id="20030001" name="Large beta-filter Nickel">
				<material>Ni</material>
				<thickness unit="mm">0.020</thickness>
			</filter>
			<detector id="7010019" name="PIXcel1D-Medipix3 detector" xsi:type="rtmsDetectorType">
				<phd unit="keV">
					<lowerLevel>4.02</lowerLevel>
					<upperLevel>11.27</upperLevel>
				</phd>
				<mode>Scanning</mode>
				<activeLength unit="deg">5.542</activeLength>
			</detector>
		</diffractedBeamPath>
		<scan appendNumber="0" mode="Continuous" scanAxis="Gonio" status="Completed">
			<header>
				<startTimeStamp>2025-10-26T16:54:18-07:00</startTimeStamp>
				<endTimeStamp>2025-10-26T17:02:25-07:00</endTimeStamp>
				<author>
					<name>AutomatedUser</name>
				</author>
				<source>
					<applicationSoftware version="1.7b (136)">PANalytical Aeris Instrument Suite</applicationSoftware>
					<instrumentControlSoftware version="3.2.00000000 20240306">AERIS</instrumentControlSoftware>
					<instrumentID>950485</instrumentID>
				</source>
			</header>
			<dataPoints>
				<positions axis="2Theta" unit="deg">
					<startPosition>10.00943322</startPosition>
					<endPosition>99.99442286</endPosition>
				</positions>
				<positions axis="Omega" unit="deg">
					<startPosition>5.00471661</startPosition>
					<endPosition>49.99721143</endPosition>
				</positions>
				<commonCountingTime unit="seconds">12.495</commonCountingTime>
				<counts unit="counts">2631 2607 2561 2631 2607 2551 2618 2617 2556 2554 2575 2530 2555 2566 2529 2516 2420 2484 2534 2546 2570 2569 2511 2557 2520 2525 2487 2514 2523 2639 2507 2597 2458 2481 2398 2505 2625 2476 2524 2509 2502 2549 2516 2539 2559 2536 2406 2481 2498 2521 2538 2536 2558 2556 2588 2537 2647 2605 2535 2583 2482 2535 2392 2516 2485 2513 2640 2589 2453 2528 2604 2466 2500 2543 2470 2456 2462 2500 2457 2479 2468 2510 2481 2539 2406 2463 2581 2320 2431 2510 2462 2591 2519 2531 2441 2571 2454 2394 2453 2536 2483 2417 2454 2447 2551 2536 2445 2456 2406 2436 2475 2444 2467 2437 2489 2447 2484 2501 2467 2457 2428 2412 2454 2458 2457 2411 2519 2437 2527 2446 2490 2463 2439 2391 2445 2383 2457 2363 2468 2402 2480 2414 2534 2394 2444 2340 2397 2471 2421 2435 2400 2450 2412 2438 2432 2335 2384 2473 2421 2398 2455 2366 2383 2455 2311 2436 2405 2393 2383 2350 2384 2301 2410 2292 2389 2363 2396 2377 2379 2398 2303 2432 2460 2310 2301 2338 2282 2341 2264 2389 2338 2358 2265 2290 2291 2288 2303 2278 2246 2292 2240 2208 2313 2291 2293 2403 2244 2348 2237 2269 2202 2299 2314 2131 2330 2335 2197 2312 2304 2225 2278 2259 2320 2256 2280 2332 2280 2278 2307 2142 2303 2297 2273 2192 2189 2174 2169 2164 2194 2194 2145 2228 2193 2252 2192 2108 2228 2133 2224 2185 2169 2201 2085 2129 2190 2047 2024 2055 2048 2141 2051 2077 2126 2121 2124 2104 2160 2146 2115 2121 2119 2119 2132 2078 2073 2053 2091 2143 2128 2102 2132 2104 2103 2094 2081 2112 2059 2043 2116 2151 2167 2082 2144 2038 2144 2070 2161 2032 2052 2099 2160 2012 1978 2069 2039 1998 1967 2019 2027 2065 2106 2079 2034 2069 2097 2085 2059 2072 1953 2054 2081 2073 2073 2061 1995 2026 2085 2009 2048 2115 2076 2039 2078 2089 2003 2084 2058 2074 2161 2017 1975 1997 1968 2019 1980 1938 1902 2035 2016 1954 1973 1992 1894 2001 1984 2060 1940 2014 2021 1901 1905 1913 1974 2036 2059 2018 2032 2018 1976 2019 2051 2055 1899 2039 1970 1960 2032 1977 1966 1954 1904 1891 1985 1846 1984 1998 2014 1947 1903 2029 1968 1963 1923 1950 1892 1945 1977 1939 2006 1932 2037 1942 2020 1823 1917 2038 1922 1983 1899 2004 2019 1971 1988 1941 1962 1981 2006 1936 1939 1999 1966 2049 2001 2049 1998 2018 2204 2043 2123 2113 2162 2157 2143 2148 2235 2159 2182 2212 2263 2262 2197 2190 2200 2238 2148 2181 2213 2226 2198 2174 2250 2287 2229 2198 2232 2153 2226 2164 2257 2255 2263 2273 2255 2231 2378 2415 2498 2410 2430 2533 2578 2685 2734 2748 2797 2908 3055 2948 3160 3079 3193 3317 3421 3595 3642 3716 3723 3780 3795 3826 3870 3822 3908 3794 3742 3586 3630 3402 3440 3294 3150 3037 2957 2857 2833 2725 2599 2713 2543 2625 2585 2514 2531 2603 2425 2465 2469 2418 2404 2468 2490 2459 2553 2491 2619 2466 2600 2692 2767 2782 2824 2976 2998 3072 3222 3227 3334 3385 3458 3365 3439 3259 3505 3341 3184 3229 3216 3224 2989 2907 2912 2734 2666 2615 2520 2409 2352 2303 2244 2257 2233 2155 2135 2112 2140 2091 2067 2095 2022 2034 2022 2043 1983 1947 2034 1921 2013 1869 1929 1952 1872 2051 1912 1969 1942 1938 1821 1841 1912 2001 1880 1939 1856 1865 1896 1908 1918 1905 1890 1833 1831 1809 1803 1817 1860 1844 1874 1797 1816 1878 1869 1852 1868 1751 1746 1817 1820 1866 1824 1866 1787 1816 1876 1837 1816 1831 1805 1776 1803 1799 1826 1788 1816 1842 1783 1844 1852 1859 1851 1940 1850 1954 1855 1873 1982 1918 1931 1950 1974 2013 1992 2041 2146 2108 2171 2244 2212 2394 2323 2405 2466 2510 2692 2733 2827 2867 3023 3178 3370 3438 3547 3745 3833 3843 3940 3949 3856 3894 3817 3813 3795 3813 3810 3552 3460 3312 3259 3197 2958 2910 2810 2685 2640 2584 2551 2413 2323 2320 2217 2187 2122 2132 2021 2009 2031 1932 2009 1880 1828 1879 1802 1897 1809 1769 1828 1779 1747 1765 1727 1703 1731 1659 1720 1670 1713 1776 1711 1744 1703 1741 1763 1724 1730 1723 1690 1744 1680 1711 1716 1615 1748 1754 1652 1654 1773 1723 1658 1720 1717 1761 1779 1738 1677 1676 1783 1669 1730 1724 1654 1732 1714 1668 1717 1638 1703 1718 1777 1762 1713 1715 1738 1795 1790 1727 1807 1788 1674 1795 1659 1695 1739 1725 1755 1719 1740 1745 1674 1683 1661 1722 1655 1670 1672 1701 1733 1603 1685 1675 1675 1651 1678 1642 1706 1662 1642 1660 1556 1664 1659 1591 1684 1605 1670 1582 1619 1663 1660 1563 1661 1653 1680 1670 1654 1634 1687 1614 1675 1626 1675 1693 1672 1653 1566 1737 1641 1572 1633 1680 1609 1699 1687 1678 1715 1614 1533 1714 1648 1630 1558 1601 1537 1560 1564 1563 1547 1604 1597 1613 1557 1647 1489 1566 1481 1607 1577 1604 1568 1552 1568 1511 1602 1591 1516 1531 1590 1606 1503 1599 1519 1544 1597 1648 1684 1524 1650 1589 1583 1553 1599 1621 1629 1564 1606 1544 1621 1549 1509 1560 1615 1601 1578 1565 1562 1631 1587 1520 1543 1628 1573 1641 1607 1587 1630 1595 1673 1669 1575 1545 1654 1603 1627 1666 1622 1524 1659 1621 1671 1612 1715 1636 1612 1578 1741 1592 1713 1677 1711 1640 1640 1621 1677 1665 1695 1706 1654 1658 1656 1648 1696 1663 1677 1667 1668 1685 1617 1668 1641 1648 1574 1689 1649 1653 1704 1594 1608 1523 1501 1537 1574 1687 1562 1609 1563 1540 1581 1580 1586 1585 1541 1609 1581 1516 1573 1543 1547 1555 1555 1537 1641 1459 1486 1540 1489 1562 1548 1496 1554 1571 1511 1507 1478 1523 1490 1540 1546 1493 1544 1485 1476 1452 1459 1544 1511 1552 1545 1468 1534 1514 1494 1458 1504 1476 1492 1499 1512 1342 1506 1477 1523 1465 1528 1521 1494 1567 1531 1545 1460 1473 1440 1480 1459 1453 1467 1504 1419 1437 1546 1412 1547 1426 1520 1494 1615 1454 1445 1546 1472 1538 1507 1534 1587 1530 1609 1573 1658 1602 1679 1648 1700 1637 1611 1612 1675 1681 1711 1823 1677 1738 1687 1768 1720 1630 1618 1689 1711 1670 1640 1591 1511 1645 1578 1663 1489 1598 1544 1481 1421 1551 1464 1525 1496 1533 1497 1542 1415 1473 1370 1446 1371 1467 1476 1501 1494 1442 1473 1460 1528 1434 1470 1458 1499 1473 1497 1523 1445 1414 1457 1502 1467 1409 1464 1475 1435 1439 1478 1452 1487 1518 1533 1452 1470 1479 1438 1423 1516 1494 1492 1465 1560 1523 1536 1542 1503 1496 1513 1539 1578 1468 1537 1546 1578 1525 1503 1561 1583 1432 1516 1572 1468 1566 1530 1488 1513 1631 1511 1579 1589 1531 1572 1588 1495 1478 1526 1521 1454 1525 1502 1574 1504 1530 1596 1537 1480 1534 1470 1567 1475 1585 1492 1550 1469 1492 1491 1551 1503 1483 1439 1490 1479 1413 1468 1495 1500 1484 1498 1469 1449 1511 1477 1548 1507 1600 1512 1506 1545 1586 1613 1567 1604 1608 1633 1691 1726 1841 1814 1859 1879 1950 1936 1959 2096 2163 2214 2372 2477 2409 2472 2583 2455 2474 2476 2517 2563 2534 2443 2468 2337 2242 2227 2237 2162 2172 2055 2065 1931 1871 1764 1711 1806 1690 1692 1614 1592 1576 1603 1597 1566 1575 1583 1544 1489 1424 1443 1556 1517 1470 1442 1464 1365 1399 1426 1475 1443 1479 1416 1430 1461 1439 1392 1385 1419 1429 1445 1418 1481 1450 1488 1440 1436 1459 1396 1397 1466 1380 1464 1457 1429 1425 1460 1464 1424 1484 1402 1481 1408 1430 1524 1458 1428 1411 1444 1465 1499 1432 1438 1465 1495 1469 1441 1455 1486 1561 1409 1457 1402 1496 1399 1520 1370 1490 1553 1382 1469 1500 1450 1475 1514 1485 1572 1475 1442 1444 1455 1444 1519 1494 1397 1471 1494 1530 1478 1468 1493 1538 1491 1456 1471 1512 1471 1525 1516 1452 1482 1466 1497 1518 1469 1500 1483 1458 1493 1534 1466 1475 1429 1385 1527 1530 1485 1480 1476 1546 1450 1554 1534 1510 1484 1524 1442 1559 1568 1501 1532 1502 1496 1529 1467 1472 1537 1413 1573 1510 1470 1597 1446 1425 1450 1460 1451 1470 1469 1411 1517 1472 1431 1427 1416 1454 1422 1387 1463 1451 1354 1377 1360 1493 1452 1436 1480 1383 1430 1396 1411 1460 1347 1442 1424 1434 1408 1374 1406 1379 1384 1398 1421 1402 1452 1390 1439 1355 1440 1444 1407 1391 1405 1347 1489 1427 1426 1436 1415 1456 1488 1433 1424 1418 1486 1453 1472 1550 1510 1472 1483 1497 1512 1428 1422 1524 1553 1452 1487 1500 1508 1514 1502 1469 1480 1517 1509 1474 1576 1446 1495 1453 1506 1479 1459 1514 1507 1555 1546 1535 1607 1555 1605 1524 1522 1486 1605 1507 1591 1517 1539 1478 1486 1525 1440 1482 1453 1415 1439 1448 1432 1441 1474 1427 1374 1439 1420 1361 1343 1369 1387 1335 1367 1347 1341 1358 1374 1437 1338 1314 1305 1328 1306 1384 1358 1378 1330 1363 1273 1373 1359 1402 1406 1350 1419 1336 1375 1344 1295 1365 1322 1352 1371 1339 1406 1413 1326 1401 1411 1388 1381 1303 1376 1365 1396 1450 1376 1326 1450 1370 1387 1406 1355 1398 1365 1311 1296 1313 1426 1354 1393 1358 1342 1380 1373 1401 1407 1427 1399 1370 1420 1393 1395 1413 1432 1449 1425 1456 1373 1426 1437 1479 1410 1470 1388 1514 1559 1506 1412 1495 1497 1425 1467 1493 1518 1495 1500 1492 1497 1498 1464 1492 1433 1482 1556 1490 1478 1445 1434 1507 1457 1448 1403 1476 1350 1511 1438 1464 1482 1429 1455 1401 1492 1453 1515 1509 1523 1537 1484 1418 1551 1539 1551 1580 1598 1640 1627 1739 1767 1811 1904 1960 1916 1877 2005 2058 2216 2310 2331 2308 2511 2374 2340 2391 2279 2466 2370 2459 2258 2338 2169 2217 2155 2136 2053 1981 1925 1932 1762 1900 1847 1854 1777 1628 1618 1602 1562 1586 1595 1523 1539 1516 1459 1504 1458 1528 1470 1402 1448 1493 1439 1513 1386 1456 1505 1509 1503 1383 1416 1406 1360 1400 1457 1480 1413 1485 1402 1472 1447 1523 1400 1421 1353 1389 1397 1392 1447 1412 1504 1444 1470 1424 1434 1448 1443 1429 1478 1473 1496 1467 1519 1511 1519 1524 1579 1478 1618 1642 1639 1626 1629 1653 1706 1681 1752 1844 1815 1951 1896 1929 2061 1995 2086 2164 2105 2162 2180 2184 2267 2204 2240 2158 2248 2159 2283 2259 2285 2309 2313 2366 2405 2330 2353 2361 2442 2584 2472 2434 2461 2444 2379 2456 2570 2420 2471 2476 2351 2288 2469 2354 2341 2258 2334 2243 2311 2208 2200 2149 2074 2203 2062 2078 2053 2028 1999 2125 2052 2001 1885 1971 1904 1829 1842 1809 1753 1891 1765 1739 1755 1771 1795 1718 1673 1664 1778 1664 1681 1725 1649 1659 1664 1666 1636 1675 1637 1565 1657 1623 1556 1656 1623 1700 1674 1531 1696 1545 1597 1577 1601 1641 1574 1627 1659 1605 1563 1594 1626 1526 1591 1619 1617 1586 1590 1518 1626 1654 1608 1582 1612 1610 1609 1634 1573 1646 1694 1680 1696 1785 1760 1661 1711 1675 1623 1770 1769 1730 1782 1772 1686 1736 1820 1804 1797 1891 1851 1945 2004 2149 2213 2266 2359 2447 2537 2750 2901 3036 3228 3526 3737 4056 4305 4541 4802 5288 5383 5929 5922 6257 6280 6473 6454 6627 6644 6491 6188 6167 5895 5701 5500 5223 4902 4701 4419 4260 4040 3849 3590 3323 3263 3011 2990 2734 2615 2619 2492 2368 2268 2214 2200 2220 1988 2044 1970 1944 1833 1849 1880 1854 1821 1894 1820 1803 1819 1891 1849 1933 1900 1920 2027 1971 1969 1944 1983 1967 1905 2010 1884 1973 1820 1860 1829 1829 1818 1787 1697 1712 1687 1710 1671 1582 1585 1514 1551 1588 1541 1506 1474 1501 1499 1467 1458 1521 1443 1381 1489 1418 1512 1384 1443 1404 1491 1460 1429 1526 1595 1547 1511 1543 1501 1524 1592 1447 1526 1561 1485 1504 1536 1577 1541 1534 1488 1523 1592 1482 1440 1474 1512 1454 1559 1535 1550 1491 1532 1507 1519 1514 1493 1466 1458 1453 1474 1524 1546 1542 1541 1510 1504 1542 1523 1485 1417 1466 1491 1550 1563 1530 1469 1484 1463 1525 1566 1530 1526 1475 1512 1565 1530 1567 1539 1543 1548 1596 1548 1575 1551 1626 1563 1607 1572 1525 1529 1518 1534 1494 1600 1517 1548 1499 1546 1565 1469 1533 1522 1488 1571 1506 1640 1523 1503 1534 1534 1464 1530 1587 1606 1546 1604 1629 1723 1666 1742 1787 1809 1895 1920 1931 1987 2053 2114 2162 2097 2161 2344 2362 2406 2348 2316 2345 2379 2233 2341 2281 2265 2119 2151 2117 2046 2025 1941 1956 1871 1828 1839 1798 1703 1758 1732 1727 1564 1590 1551 1503 1544 1598 1538 1502 1477 1524 1485 1449 1463 1433 1513 1446 1490 1423 1441 1512 1407 1451 1467 1397 1482 1489 1495 1494 1522 1503 1506 1553 1557 1601 1559 1651 1660 1722 1774 1787 1814 1809 1764 1770 1920 1910 2047 1965 2027 2115 2113 2158 2195 2264 2107 2284 2202 2209 2252 2264 2141 2247 2215 2170 2132 2168 2057 2018 1946 1986 2022 2023 1891 1986 1935 1891 1898 1913 1819 1804 1788 1837 1850 1776 1829 1747 1688 1720 1699 1778 1713 1754 1652 1715 1671 1795 1650 1752 1717 1719 1668 1655 1616 1617 1672 1645 1630 1559 1598 1613 1646 1596 1590 1557 1630 1651 1608 1569 1514 1637 1647 1644 1604 1650 1526 1617 1549 1705 1574 1632 1664 1629 1617 1636 1618 1669 1668 1724 1704 1764 1742 1777 1722 1658 1744 1737 1713 1714 1716 1704 1734 1711 1711 1788 1777 1771 1710 1628 1651 1717 1718 1702 1671 1657 1672 1642 1640 1674 1640 1640 1651 1651 1531 1601 1614 1571 1643 1700 1654 1702 1728 1766 1719 1722 1856 1731 1892 1958 2086 2023 2095 2014 2185 2140 2338 2294 2241 2294 2347 2344 2377 2330 2335 2263 2363 2333 2251 2254 2150 2119 2146 2076 2040 1918 1916 1858 1806 1880 1834 1767 1702 1769 1747 1799 1826 1855 1845 1758 1818 1816 1915 1888 1819 1868 2021 2071 2038 1986 1982 1958 1892 1951 2005 1947 1926 1869 1859 1851 1853 1815 1793 1710 1683 1642 1681 1589 1619 1511 1503 1504 1571 1539 1466 1440 1477 1454 1440 1358 1386 1458 1466 1367 1436 1403 1378 1403 1309 1286 1339 1340 1274 1359 1349 1372 1383 1304 1376 1403 1330 1318 1346 1385 1309 1339 1319 1364 1309 1289 1267 1316 1289 1350 1300 1308 1360 1321 1318 1359 1291 1352 1354 1291 1325 1329 1334 1349 1349 1350 1321 1403 1345 1260 1352 1381 1294 1347 1371 1350 1378 1339 1404 1411 1353 1375 1305 1363 1346 1379 1345 1336 1312 1339 1435 1342 1457 1333 1347 1323 1406 1344 1441 1396 1455 1424 1299 1406 1405 1421 1421 1374 1373 1331 1419 1427 1446 1365 1347 1390 1339 1350 1338 1409 1323 1361 1358 1347 1348 1273 1361 1357 1302 1265 1321 1263 1284 1325 1411 1339 1353 1291 1326 1449 1309 1275 1329 1337 1247 1300 1253 1261 1294 1206 1303 1231 1297 1373 1344 1346 1296 1311 1297 1368 1320 1306 1264 1244 1293 1306 1339 1347 1303 1303 1331 1244 1359 1309 1402 1348 1368 1350 1350 1326 1393 1386 1309 1356 1302 1414 1317 1288 1346 1348 1372 1247 1275 1309 1332 1326 1361 1355 1289 1310 1290 1214 1328 1286 1300 1328 1327 1324 1335 1309 1382 1299 1367 1284 1273 1327 1350 1248 1412 1318 1281 1331 1319 1312 1373 1349 1260 1344 1245 1267 1324 1313 1264 1346 1255 1265 1395 1365 1334 1315 1322 1259 1401 1256 1418 1326 1406 1388 1360 1347 1286 1361 1377 1358 1354 1319 1387 1346 1400 1348 1391 1370 1416 1402 1271 1392 1385 1331 1405 1394 1411 1328 1404 1303 1381 1350 1347 1420 1334 1351 1385 1395 1421 1388 1423 1424 1352 1353 1322 1379 1377 1322 1378 1450 1393 1367 1417 1392 1378 1451 1457 1416 1383 1480 1437 1470 1511 1490 1439 1495 1388 1463 1503 1503 1381 1407 1437 1397 1480 1432 1378 1452 1455 1348 1369 1363 1313 1330 1401 1293 1386 1383 1315 1339 1315 1355 1318 1309 1313 1353 1284 1345 1392 1373 1276 1359 1336 1265 1386 1339 1349 1365 1355 1402 1435 1431 1391 1410 1438 1544 1495 1569 1552 1623 1720 1694 1744 1807 1897 1857 2011 2054 2279 2315 2541 2609 2773 2968 3058 3262 3480 3501 3655 3778 3871 3801 3794 3889 3920 3863 3920 3819 3789 3766 3725 3576 3500 3261 3207 3069 3033 2867 2730 2699 2492 2391 2226 2245 2005 1988 1965 1946 1768 1776 1672 1649 1556 1557 1503 1408 1391 1449 1447 1346 1445 1305 1431 1393 1268 1393 1245 1271 1361 1292 1278 1327 1217 1246 1245 1204 1266 1190 1288 1215 1215 1157 1205 1169 1211 1243 1211 1206 1204 1259 1227 1220 1174 1274 1163 1201 1185 1270 1238 1263 1223 1254 1237 1194 1231 1217 1162 1184 1206 1204 1172 1244 1181 1200 1123 1196 1187 1135 1186 1192 1200 1197 1219 1176 1146 1175 1158 1238 1246 1134 1175 1187 1180 1222 1189 1155 1163 1132 1215 1179 1183 1183 1268 1183 1235 1147 1167 1291 1202 1189 1264 1216 1251 1171 1237 1229 1173 1207 1204 1238 1180 1215 1171 1248 1260 1276 1297 1291 1292 1268 1262 1305 1313 1318 1306 1343 1364 1328 1400 1422 1412 1448 1450 1511 1569 1520 1467 1582 1668 1646 1592 1558 1666 1610 1606 1677 1584 1638 1578 1592 1543 1514 1603 1640 1545 1543 1548 1482 1479 1429 1415 1451 1369 1428 1401 1343 1331 1319 1338 1315 1381 1309 1349 1289 1231 1281 1336 1420 1304 1369 1355 1399 1379 1383 1385 1420 1356 1449 1450 1397 1531 1487 1528 1523 1522 1540 1533 1543 1482 1576 1584 1454 1495 1564 1614 1506 1533 1468 1382 1456 1422 1411 1428 1366 1390 1352 1320 1209 1314 1232 1194 1282 1207 1220 1214 1232 1341 1208 1267 1221 1159 1265 1214 1162 1232 1279 1217 1226 1182 1070 1108 1155 1112 1138 1225 1180 1230 1200 1198 1166 1192 1214 1202 1202 1256 1252 1244 1298 1346 1299 1315 1331 1340 1340 1372 1391 1392 1336 1362 1442 1315 1396 1437 1329 1386 1299 1371 1347 1333 1271 1364 1381 1359 1383 1325 1232 1324 1296 1298 1336 1247 1318 1242 1324 1168 1244 1321 1265 1294 1301 1243 1258 1335 1223 1273 1214 1261 1213 1274 1241 1276 1203 1278 1293 1251 1238 1243 1190 1268 1287 1167 1215 1230 1238 1165 1258 1206 1208 1243 1185 1258 1214 1217 1247 1180 1236 1191 1216 1196 1175 1236 1179 1189 1197 1175 1208 1166 1183 1132 1155 1205 1201 1184 1208 1244 1273 1195 1189 1154 1176 1232 1205 1286 1211 1168 1266 1212 1250 1274 1254 1265 1253 1241 1269 1165 1221 1282 1278 1221 1282 1235 1191 1269 1230 1313 1304 1320 1261 1313 1236 1285 1277 1262 1318 1313 1319 1234 1228 1207 1259 1210 1238 1211 1232 1255 1208 1171 1166 1222 1146 1183 1183 1189 1087 1166 1183 1147 1146 1186 1173 1139 1114 1066 1102 1113 1140 1177 1175 1215 1172 1137 1157 1186 1186 1180 1135 1218 1255 1237 1228 1176 1098 1271 1210 1204 1216 1179 1185 1143 1241 1240 1290 1203 1295 1210 1265 1191 1170 1238 1263 1255 1293 1248 1240 1226 1148 1214 1150 1193 1151 1221 1128 1281 1145 1238 1148 1175 1179 1192 1200 1296 1116 1193 1162 1209 1211 1174 1197 1201 1162 1159 1232 1233 1265 1214 1245 1228 1180 1275 1215 1254 1225 1191 1168 1222 1129 1238 1170 1119 1227 1195 1197 1141 1191 1169 1077 1210 1178 1157 1189 1252 1127 1197 1176 1146 1159 1205 1156 1152 1233 1162 1221 1236 1164 1239 1214 1156 1221 1182 1199 1141 1133 1187 1217 1157 1253 1205 1248 1202 1277 1257 1268 1293 1278 1322 1287 1299 1346 1221 1337 1276 1338 1263 1375 1292 1298 1383 1357 1320 1279 1367 1355 1284 1302 1222 1289 1254 1288 1321 1222 1271 1216 1243 1250 1324 1253 1243 1192 1236 1186 1211 1226 1187 1167 1252 1163 1161 1202 1122 1233 1261 1178 1230 1217 1204 1194 1216 1205 1155 1248 1244 1222 1222 1184 1238 1280 1188 1206 1204 1318 1306 1313 1301 1260 1390 1412 1360 1388 1372 1410 1355 1391 1392 1388 1450 1433 1431 1459 1427 1439 1427 1312 1398 1443 1408 1399 1288 1351 1296 1308 1365 1358 1362 1307 1364 1322 1199 1308 1204 1269 1290 1298 1311 1250 1247 1196 1261 1274 1278 1274 1251 1256 1280 1261 1294 1373 1373 1342 1391 1329 1460 1449 1506 1501 1554 1600 1597 1655 1737 1855 1856 1948 1997 2076 2101 2053 2113 2188 2122 2127 2356 2192 2326 2262 2302 2280 2231 2095 2148 2072 2100 1974 2042 1976 1933 1845 1847 1744 1709 1763 1569 1574 1539 1564 1532 1488 1460 1312 1387 1377 1362 1329 1384 1368 1323 1260 1272 1272 1263 1301 1198 1223 1285 1240 1317 1268 1314 1348 1249 1331 1294 1405 1289 1297 1257 1278 1325 1295 1341 1296 1257 1226 1388 1297 1334 1375 1308 1302 1351 1339 1369 1351 1434 1431 1422 1393 1453 1411 1525 1450 1529 1441 1563 1455 1510 1499 1516 1442 1485 1535 1558 1541 1477 1513 1488 1478 1526 1477 1390 1486 1427 1430 1452 1369 1351 1454 1418 1358 1392 1328 1312 1325 1326 1347 1325 1305 1329 1335 1265 1294 1331 1349 1331 1359 1351 1265 1284 1297 1227 1247 1182 1235 1223 1247 1237 1286 1293 1299 1222 1193 1185 1194 1195 1272 1160 1148 1206 1201 1249 1154 1229 1145 1150 1166 1227 1225 1128 1191 1151 1148 1158 1195 1138 1116 1099 1162 1201 1056 1150 1211 1141 1131 1127 1161 1087 1115 1159 1194 1168 1069 1118 1104 1133 1214 1077 1135 1136 1173 1153 1137 1139 1154 1095 1124 1096 1101 1145 1145 1053 1090 1118 1109 1075 1095 1090 1064 1082 1047 1014 1096 1145 1113 1068 1069 1066 1112 1086 1105 1183 1111 1102 1064 1096 1103 1123 1128 1120 1118 1125 1132 1161 1099 1116 1085 1120 1121 1090 1105 1110 1076 1160 1132 1191 1158 1110 1088 1145 1129 1085 1162 1193 1163 1215 1200 1170 1177 1150 1218 1312 1304 1230 1281 1384 1368 1377 1352 1375 1429 1464 1471 1470 1509 1583 1482 1557 1604 1617 1630 1662 1551 1693 1622 1647 1606 1700 1649 1634 1604 1592 1644 1597 1582 1569 1640 1589 1569 1535 1533 1400 1425 1474 1498 1450 1551 1466 1515 1503 1417 1492 1438 1448 1460 1427 1447 1383 1417 1428 1481 1409 1427 1452 1335 1501 1445 1518 1436 1556 1378 1523 1449 1483 1463 1451 1473 1372 1423 1501 1362 1410 1334 1357 1329 1370 1353 1360 1263 1330 1288 1291 1214 1217 1163 1264 1242 1283 1176 1296 1265 1209 1206 1247 1254 1308 1275 1300 1263 1283 1312 1322 1339 1307 1301 1362 1272 1311 1305 1349 1290 1259 1301 1238 1302 1234 1299 1184 1231 1273 1190 1196 1273 1184 1202 1142 1207 1151 1184 1172 1106 1119 1136 1132 1109 1074 1124 1101 1123 1113 1078 1123 1109 1132 1100 1052 1030 1099 1084 1125 1095 1036 1083 1113 1094 1103 1160 1086 1173 1168 1156 1241 1179 1190 1307 1257 1303 1319 1329 1345 1349 1398 1440 1356 1523 1524 1509 1538 1494 1570 1541 1493 1535 1594 1645 1562 1573 1525 1603 1515 1585 1540 1545 1441 1511 1447 1410 1353 1312 1312 1255 1310 1291 1242 1202 1164 1240 1157 1189 1134 1118 1131 1110 1129 1017 1059 1054 1044 1000 958 1044 1080 1026 1009 972 1058 1079 1030 980 1017 954 1034 1021 1065 1026 1032 963 991 993 978 1057 987 1073 945 1007 1004 986 1056 1049 939 1004 1042 1020 1075 1035 1123 1010 1093 1058 1047 1048 996 1018 1046 1042 1099 1041 1032 1093 985 1096 1098 1002 1109 1120 1060 1081 1109 1123 1121 1141 1126 1160 1167 1153 1168 1240 1243 1237 1238 1242 1286 1255 1253 1217 1270 1292 1252 1358 1204 1296 1234 1224 1235 1236 1210 1099 1239 1151 1204 1127 1138 1112 1120 1123 1126 1007 1103 1114 1088 1087 1094 999 1003 1023 1047 996 1084 1020 1039 1078 1021 1016 1029 1076 1014 1046 1033 1026 1024 1038 995 1071 1043 1025 1051 993 1036 1035 1044 1032 1046 1073 1026 1059 1025 1076 1004 980 1056 1014 981 1051 998 1045 1028 1013 973 1099 1046 1046 978 1031 1061 1070 1014 988 1037 985 1030 1087 1039 1021 1026 1010 1054 1022 1017 964 1008 1039 962 1013 953 1020 1015 1008 969 1006 1005 963 975 991 1016 1045 1032 1036 982 1053 999 1036 1032 1030 1000 999 1044 963 1009 1015 997 978 1054 1045 1020 972 1056 953 1014 1025 1084 954 986 997 1037 1050 988 1004 1061 1005 970 992 1083 1029 1007 1024 1065 1002 1072 1005 1040 1061 1015 1022 1082 1058 1075 988 998 1039 1026 1018 1041 981 989 1047 1008 997 1040 1024 1048 1022 1026 1000 1070 1054 1063 1068 1069 1032 1057 1091 1028 1050 1007 948 1039 1055 1052 1078 1085 1080 1013 1119 1036 1109 1099 1085 1015 1097 1075 1068 1093 1072 1052 1051 1003 1068 1132 1039 1058 1100 1089 1113 1074 1045 1052 1057 1130 1093 1073 1029 1065 1059 1062 1052 951 1106 1073 984 1070 984 1081 1013 1011 968 944 1019 1000 979 970 1004 963 989 1021 949 998 998 1026 991 1016 959 1057 1000 1037 965 1102 1015 1012 1029 1008 1042 1042 973 1027 1019 1041 990 1059 1091 1120 1064 1105 1045 1110 1074 1148 1131 1111 1041 1107 1021 1114 1061 1082 1131 1086 1105 1086 1140 1140 1119 1188 1181 1085 1158 1073 1123 1168 1134 1151 1131 1091 1114 1175 1127 1080 1091 1067 1071 1042 1097 1100 1100 1063 1084 998 1052 1075 1092 1059 1120 1045 1040 1045 1012 1124 1078 1042 1044 1068 1109 1046 1049 1106 1049 1073 1076 1047 1007 1091 996 1064 1013 1066 1117 986 1048 1067 1031 1051 1142 1065 1018 1082 1034 1111 1075 1100 1066 1111 1059 1130 1183 1080 1164 1107 1166 1115 1126 1159 1247 1177 1285 1167 1254 1244 1238 1265 1336 1243 1429 1316 1388 1422 1403 1345 1365 1422 1484 1329 1344 1390 1455 1451 1440 1426 1450 1429 1507 1379 1379 1343 1419 1363 1453 1377 1377 1307 1397 1277 1326 1250 1274 1362 1303 1317 1295 1297 1229 1218 1289 1235 1283 1186 1198 1174 1268 1280 1278 1268 1315 1251 1249 1266 1196 1233 1216 1161 1243 1208 1253 1204 1246 1258 1217 1216 1221 1212 1200 1265 1227 1218 1229 1227 1213 1258 1234 1209 1197 1261 1283 1270 1280 1193 1184 1199 1291 1226 1198 1174 1255 1216 1154 1223 1226 1183 1160 1199 1175 1184 1125 1158 1134 1063 1113 1105 1069 1070 1084 1099 1060 1002 1047 1058 1071 1075 1056 1065 1104 1030 1073 1006 1041 1052 1061 1040 999 1007 979 1096 1026 1035 1001 1094 1015 1052 969 1002 1029 945 959 1013 1067 988 1005 1030 990 1044 1029 1023 1012 1000 1023 1030 1043 1002 1081 979 1041 973 962 1016 976 954 1081 1027 1052 973 1030 1057 979 1060 1041 1005 1062 1112 1075 1095 1124 1022 1040 1040 1009 1004 1000 1029 1090 1073 977 1092 992 1082 1098 1071 979 1099 1044 1082 1070 1090 1121 1054 1067 1112 1116 1130 1152 1201 1109 1172 1257 1172 1218 1231 1220 1185 1174 1227 1239 1257 1188 1185 1261 1197 1232 1266 1180 1229 1149 1213 1190 1244 1231 1185 1150 1167 1195 1126 1155 1186 1164 1105 1163 1136 1116 1090 1110 1080 1109 1095 1156 1113 1184 1121 1103 1104 1139 1127 1179 1157 1109 1131 1097 1135 1126 1221 1076 1175 1109 1173 1139 1179 1130 1180 1157 1149 1136 1170 1133 1221 1169 1197 1202 1177 1230 1209 1136 1098 1195 1180 1172 1204 1150 1142 1106 1117 1070 1146 1152 1131 1154 1150 1146 1153 1115 1105 1130 1111 1103 1144 1156 1137 1039 1026 1096 1132 1047 1195 1093 1091 1034 1058 1041 1145 1096 1053 1026 1100 1050 1070 1070 1035 1108 1055 1018 1064 1006 1046 1062 1019 1014 1049 1047 1013 1023 1059 1087 1058 1036 1048 1039 959 1060 1028 1025 1049 1066 1010 1027 1022 1061 1079 1025 1051 1052 1089 1099 1069 1091 1024 1068 1040 1085 1032 1061 1023 1101 968 1051 1101 1078 1092 1045 1044 1028 1033 1033 1057 1060 1060 1056 1013 1050 1057 1020 1021 989 1094 1038 1074 1047 978 998 1051 1030 1072 1095 1052 1041 1003 1013 1092 1055 986 1010 1011 1025 1004 1002 1040 1009 1050 1043 1038 1049 1032 1170 1115 1073 1016 1095 1128 1098 1029 1097 1102 1101 1139 1050 1066 1052 1133 1069 1078 1100 1081 1078 1093 1040 1151 1105 1125 1086 1143 1123 1050 1110 1138 1110 1136 1072 1107 1061 1088 1132 1069 1077 1110 1072 1057 1115 1119 1111 1125 1105 1064 1063 1128 1097 1125 1132 1097 1150 1094 1084 1064 1101 1154 1111 1095 1141 1152 1161 1049 1085 1126 1033 1054 1072 1058 1100 1011 1053 1011 1007 1052 1005 1008 1026 1095 1023 1031 1030 1024 1046 1006 1021 971 1072 1040 1031 1013 992 1039 1011 968 1017 1030 960 1053 1017 1041 1057 934 1106 1026 979 1047 1073 965 1032 1035 1098 1061 1081 1048 1070 998 1075 1114 1108 1077 1024 1025 1057 995 1098 1052 1063 1134 1061 1143 1167 1113 1148 1152 1080 1105 1102 1113 1150 1106 1195 1162 1213 1208 1170 1258 1168 1178 1317 1238 1276 1259 1282 1249 1359 1319 1324 1287 1314 1359 1296 1323 1374 1327 1365 1279 1362 1340 1230 1286 1333 1291 1244 1282 1276 1253 1312 1363 1274 1258 1262 1167 1134 1182 1229 1114 1102 1104 1140 1071 1081 1095 1042 1084 1114 1044 1083 1068 1037 1010 1061 1053 958 1007 1057 1000 958 1065 1018 1004 960 1005 1005 1045 989 988 987 983 1022 956 939 967 1007 984 936 981 1008 948 1016 964 992 978 971 979 947 1026 972 1032 1001 963 968 1016 1009 987 937 1010 974 1036 938 1022 918 993 1021 948 989 930 959 999 962 929 956 995 940 1047 1054 1054 1101 941 1039 1044 1048 1025 1057 1053 974 993 1079 1034 1027 1087 983 1000 1071 1032 1060 1059 1010 988 1077 1111 1081 995 1051 1022 1074 1074 1050 1087 1096 1069 1022 1029 1003 1026 1037 1093 1053 1021 985 1006 1047 1045 1053 965 1001 1001 982 1033 1014 1006 1042 1013 945 1081 1020 1006 924 954 1043 964 999 1071 993 946 986 1022 927 1002 985 1028 940 974 1005 958 1015 1004 1009 979 970 996 1033 1001 932 947 977 1025 996 978 1025 1009 1075 970 1003 1014 995 1023 977 1013 1062 987 1057 1054 1069 1064 1040 1029 1081 1052 1149 1130 1148 1150 1029 1070 1104 1048 1086 1094 1106 1091 1061 1074 1023 978 1021 1092 1067 1051 1072 1046 1015 992 1039 1028 999 1028 991 998 932 965 975 1016 992 1002 939 953 968 961 1012 967 990 945 997 964 966 946 981 899 952 921 913 915 985 933 980 973 957 933 952 919 953 949 983 972 943 954 1004 957 978 961 954 985 950 934 861 950 938 989 952 975 961 982 964 912 979 1031 944 941 994 965 938 915 900 901 901 947 937 920 915 928 991 937 956 921 1033 895 981 989 929 980 993 1001 954 989 971 1024 1029 961 991 917 992 946 979 888 1034 943 930 1018 965 960 978 909 987 935 976 996 938 1068 967 1003 952 1023 1007 1057 991 1029 974 1018 1065 996 1017 1033 1060 993 993 1010 1073 967 953 1066 1036 997 1080 1003 1016 1062 1009 1034 996 1051 989 1027 977 1035 1060 991 1021 1026 1005 970 949 928 1017 986 941 958 1005 931 949 944 945 965 967 955 955 893 901 905 923 926 930 996 990 958 996 983 986 1008 986 1015 992 887 885 910 909 950 962 899 936 913 983 891 994 897 971 911 964 950 948 1011 937 988 944 950 923 966 997 971 953 992 951 912 977 938 920 901 965 913 909 929 954 995 919 941 908 983 962 906 957 909 858 975 932 1009 921 979 946 943 983 976 957 1030 1000 920 1043 906 1003 947 967 965 1004 960 992 956 1015 1015 969 1004 980 1011 1024 958 977 1005 1042 995 937 919 1007 995 937 960 978 965 1008 937 996 1000 971 954 946 945 956 994 959 936 929 956 943 970 911 975 911 898 941 938 931 934 1003 972 966 976 984 913 908 930 966 936 1019 896 956 953 957 1020 962 989 902 1036 962 964 1025 968 954 970 957 981 972 990 1008 932 968 966 1012 977 999 971 977 934 1029 990 994 975 1024 984 930 997 965 943 968 986 1062 985 1012 928 988 965 953 1001 945 946 947 1025 955 937 938 929 949 919 932 953 960 949 967 949 950 964 937 962 959 1075 952 972 996 943 913 948 968 976 991 932 917 900 965 959 918 973 948 992 966 907 942 1020 980 974 945 988 951 960 916 900 918 958 973 999 981 975 955 984 995 899 961 958 974 939 972 965 962 976 948 1019 980 1012 1003 950 980 968 932 972 979 956 948 989 959 957 903 989 890 992 961 972 993 951 937 984 921 1038 954 951 1012 1024 942 955 996 994 939 1020 1000 982 988 1009 973 1056 900 933 973 1008 1000 983 1011 965 1023 904 969 919 996 960 996 978 985 984 978 1013 1011 1005 935 1013 970 963 998 967 1004 999 1006 986 1036 1025 1052 1050 1006 1003 899 1000 1009 960 974 992 973 1030 997 942 1041 1002 1035 969 961 991 961 973 1008 1057 1052 980 1046 992 980 929 1006 936 981 965 959 1001 1008 937 970 969 968 945 983 949 945 928 998 982 957 900 974 923 987 944 994 908 959 929 923 949 1051 966 942 938 947 948 1018 999 915 1044 971 939 947 1052 988 931 922 952 936 1001 961 1005 978 983 956 981 952 1024 967 937 993 1027 1031 983 963 1028 1010 1049 1029 1053 1012 986 974 994 1002 1016 967 992 967 989 993 946 941 968 1020 983 1011 956 1010 968 1072 949 941 908 978 939 988 1008 1017 993 989 1001 952 1019 983 996 1000 994 1036 971 981 1009 923 1014 988 1059 1059 985 1027 965 1025 1009 1038 1017 1007 1027 1094 1036 1024 1081 1024 1095 1069 1103 1115 1066 1060 1095 1054 1109 1085 1066 1075 1062 1067 1137 1036 1059 1035 1007 1038 1016 1070 988 1003 1011 1075 1025 1036 1009 1020 987 1040 983 1012 997 969 942 993 1006 991 1011 989 1038 1013 953 944 945 1020 1009 956 967 990 942 964 962 963 981 1048 947 996 996 997 1016 977 1050 957 975 945 960 1011 989 953 980 992 1017 959 1013 946 961 967 973 1037 1020 1015 982 980 976 1039 995 1008 1041 1002 1000 991 1005 965 1022 1003 1029 960 1106 1009 992 1073 986 992 953 995 916 1058 995 991 929 1005 957 1034 970 1019 1045 979 1016 1003 1029 1028 939 1043 977 1021 1038 1009 1007 986 986 983 963 1000 910 990 965 965 972 988 952 1003 932 981 954 986 918 1012 923 1006 977 987 994 1042 965 1018 1011 982 986 1004 901 1002 979 966 972 991 949 1002 955 1049 1028 1046 1065 1032 1071 1047 1000 1019 1005 979 970 1024 1026 1041 1024 1029 1009 1012 973 1055 1049 1004 1014 1014 1049 1017 982 1012 1018 1022 1020 1091 1073 1058 1080 1093 1028 1007 1028 1058 962 1019 1047 1035 1048 1038 1005 1057 1036 1022 1016 1022 1059 1043 1016 1050 1004 1040 1056 1005 1023 1031 1039 953 1031 995 952 962 1032 996 1034 1034 1001 964 978 1009 933 1001 908 980 988 979 991 966 1023 955 936 974 972 1002 969 945 962 989 984 951 969 975 908 971 933 952 925 922 955 1046 1004 1002 1053 925 958 952 906 916 970 976 917 942 987 972 1023 977 987 1031 989 967 970 949 961 1016 1033 917 1021 979 1042 972 1011 942 959 993 957 989 1023 980 902 1031 1015 970 992 1035 965 938 1053 1036 978 957 985 999 970 1023 1022 969 954 972 930 963 1006 992 988 1026 946 1007 953 1008 992 1020 1058 971 998 944 1042 958 979 987 980 959 984 947 934 921 972 946 1059 943 976 953 961 980 966 1024 1026 1061 962 979 886 947 965 1076 986 991 977 989 1002 1052 1034 945 975 1042 1027 997 1007 1042 999 1037 1005 1009 984 1015 1013 1002 960 1006 1045 996 1012 1031 993 1044 1060 1062 1020 1070 1030 1068 1110 1122 1135 1150 1059 1056 1170 1050 1157 1193 1140 1133 1117 1149 1192 1121 1171 1190 1168 1236 1173 1155 1168 1170 1171 1131 1184 1166 1135 1145 1117 1070 1138 1094 1143 1121 1143 1107 1129 1128 1075 1062 1044 1030 1037 1071 1070 1043 1005 1001 986 1059 1000 1062 1027 1042 1021 1002 985 992 1011 1065 975 1058 1034 1042 1011 1012 985 1038 1061 980 1004 965 1024 997 979 995 954 962 1057 1000 983 995 996 983 1036 1030 1010 1023 953 1080 1006 1009 1013 1021 1014 977 945 928 958 986 1038 1031 1023 991 981 1019 1005 1043 1043 974 1027 1061 1020 990 987 980 1022 1083 1032 988 990 1014 959 1014 997 1103 1016 1011 961 1060 1007 1003 1036 1113 979 953 1031 987 998 1041 997 968 1016 950 993 994 1021 1081 978 1028 991 946 988 999 1041 1014 1074 1038 1004 1008 1028 1066 1042 1052 999 1031 992 1044 1015 990 1042 1072 986 1094 1048 1046 1043 1058 1103 1122 1102 1040 1139 1168 1138 1125 1180 1191 1159 1156 1173 1251 1114 1228 1146 1219 1187 1171 1215 1243 1136 1224 1275 1237 1212 1215 1175 1179 1189 1187 1199 1182 1208 1174 1153 1145 1118 1213 1158 1080 1167 1075 1062 1149 1125 1109 1099 1093 1078 1074 1062 1021 1057 1026 1032 1078 1036 1043 1026 991 992 1015 1010 1050 1035 997 992 1017 1026 989 1027 960 978 963 980 1003 978 968 1018 981 984 992 956 973 970 1035 948 963 978 1021 1004 1022 974 1027 985 993 1014 952 993 965 1020 979 1024 1011 1000 941 970 1025 993 1025 973 976 1019 1006 1057 1054 1053 972 1021 983 1000 1069 988 1099 1025 1097 1060 1053 991 1074 1006 1038 1009 996 1027 1034 1063 1036 1044 1054 1066 1066 1049 1004 1036 1004 1019 1040 1037 1044 1009 1005 999 1028 1013 1067 1059 1044 978 1064 982 1067 1051 953 1002 1028 993 1012 996 1004 1017 1050 1013 994 1010 1041 1035 1026 982 1027 1005 1008 957 1045 1015 1001 982 1053 1020 987 986 980 1020 1006 1060 1077 1011 937 988 1005 1029 1024 1043 1069 1024 1037 1019 1075 1020 970 1073 951 1005 976 958 1041 972 925 996 964 1036 939 996 998 967 970 964 989 956 974 928 996 994 928 943 1000 975 978 957 969 949 1024 972 983 944 925 992 939 963 966 988 996 986 966 911 971 987 1024 950 1004 1002 1001 1023 966 981 975 946 984 1009 1002 960 1013 1033 1012 921 1007 958 1102 1019 996 1041 1079 994 975 1035 1006 984 968 1021 959 966 977 971 986 1018 1087 957 971 989 958 999 959 963 965 1006 1003 1012 989 1007 981 1029 979 979 1061 980 1019 985 964 933 905 998 971 965 948 942 1030 952 1048 1009 965 1029 1008 1091 1078 1054 1014 1021 996 1002 1008 1046 1026 1077 1096 1123 1091 1115 1062 1157 1155 1047 1133 1098 1157 1128 1138 1174 1094 1221 1107 1133 1158 1111 1145 1099 1172 1110 1118 1125 1120 1112 1180 1098 1112 1126 1072 1139 1076 1173 1126 1105 1114 1094 1117 1067 1028 1053 1097 1045 993 1021 938 1023 1058 1008 1058 1010 958 964 961 995 973 945 992 934 967 962 978 947 980 1007 945 955 977 945 978 947 959 909 959 965 994 966 945 987 977 915 931 977 890 1000 980 875 975 905 901 957 936 917 1007 947 963 929 937 887 971 920 954 938 974 990 969 982 998 986 1001 945 950 967 934 939 926 930 969 945 947 1061 912 993 1021 983 982 973 958 1029 920 986 1036 929 994 1027 1045 1067 1044 1041 973 992 1028 1030 1057 1039 1038 1075 1041 983 1010 971 1013 1059 999 1023 1056 1086 1024 1057 1077 1082 1119 1016 1036 1008 1010 997 983 1029 1051 995 1017 994 999 1054 1054 1012 1026 980 977 915 970 976 993 1012 1038 1005 940 989 907 958 973 1023 927 988 984 1023 951 982 1025 962 972 1001 975 962 970 936 976 973 986 936 934 966 1010 923 969 950 983 960 975 983 927 980 998 989 948 943 1018 986 994 932 993 950 1054 999 1014 987 899 1011 1027 944 994 1041 1006 1004 989 926 1023 1013 1046 986 1024 968 960 945 989 1012 988 1032 970 965 947 929 992 1033 935 947 941 950 976 1015 945 994 945 1009 1006 981 977 1001 957 1042 903 1032 1009 1014 1023 1040 982 923 930 994 975 984 1016 1015 918 968 974 982 941 966 948 1007 983 902 968 897 1026 968 922 942 917 981 925 962 957 965 958 870 975 932 993 907 933 991 959 972 999 1006 906 886 893 917 862 958 906 968 972 1008 951 962 909 979 953 944 960 987 935 913 931 978 911 941 960 958 957 906 1029 960 983 983 953 1050 958 930 960 975 1029 898 980 995 948 1004 995 988 995 963 931 880 973 1036 998 932 942 978 967 1002 941 1038 1003 999 918 959 959 1009 981 929 948 969 952 906 943 943 998 926 904 946 967 935 888 981 963 930 899 982 946 951 914 900 937 942 941 886 975 946 917 952 972 963 887 946 889 965 951 930 979 913 907 973 982 948 897 911 987 983 969 913 960 951 980 997 880 937 906 906 903 931 926 918 915 973 907 944 996 962 954 964 971 924 975 919 969 882 1013 983 924 940 913 937 926 956 970 959 967 1031 980 982 926 874 909 924 944 964 968 923 967 997 983 920 1005 957 984 1011 961 987 908 971 963 955 991 945 1017 989 1044 973 1014 1002 947 943 986 1002 980 961 1016 977 1026 1002 954 933 986 984 1041 1015 1009 974 944 1008 958 970 1029 979 999 948 1003 950 951 935 1005 954 921 946 970 936 942 906 917 876 876 893 994 891 978 1016 933 940 933 1020 899 939 894 940 962 931 893 939 876 923 914 947 929 900 914 923 912 941 948 901 912 927 885 886 904 921 907 888 919 892 897 963 884 911 897 878 927 920 942 939 888 942 857 895 815 945 900 874 856 866 912 926 915 855 860 960 918 962 916 917 903 884 967 937 943 895 974 939 940 966 931 963 984 907 907 929 926 889 903 898 900 942 912 940 897 986 867 912 894 929 949 938 911 925 927 975 971 929 892 955 907 1014 951 961 904 907 971 858 932 906 989 958 939 893 967 959 938 959 1047 950 985 1010 962 974 961 1005 954 1012 947 1010 998 1004 949 938 985 988 945 990 1009 955 966 975 914 991 957 1003 1029 965 1005 999 983 994 910 1024 1028 1005 1019 1001 958 991 997 980 984 996 978 974 995 987 969 1008 950 944 1005 1034 983 973 963 918 927 1000 988 979 984 989 1023 977 995 989 950 1010 962 973 990 933 995 950 954 936 969 998 960 966 950 912 997 949 988 946 983 898 945 964 918 951 964 912 1039 1001 953 970 995 960 989 977 926 1020 937 965 922 987 958 937 913 966 900 982 937 949 941 959 1013 1003 928 973 909 995 941 969 996 911 972 923 962 984 984 980 904 919 957 918 932 1002 1013 939 978 990 939 921 952 940 986 989 945 928 920 951 966 1019 955 1003 955 936 988 935 944 1006 923 996 1028 994 937 972 935 1003 1016 983 958 1006 994 1023 1028 1021 1041 969 1033 989 997 980 952 935 1015 1044 1020 995 995 985 1013 996 962 975 964 1028 912 971 1016 1036 937 968 1003 950 938 955 894 986 930 913 981 951 1031 910 1008 966 933 947 967 924 981 962 932 944 950 921 941 955 967 964 976 961 965 954 978 938 976 911 998 944 892 955 905 909 909 957 988 964 903 914 963 929 949 871 957 851 942 856 914 927 934 910 924 916 928 915 861 943 887 898 932 861 920 863 860 933 868 931 948 989 932 928 894 934 881 969 961 941 914 870 898 894 887 895 962 918 943 896 915 934 883 950 940 888 861 908 894 917 933 936 945 899 930 911 970 884 906 949 942 943 921 930 957 945 936 894 877 952 939 970 958 952 934 905 900 945 978 864 881 891 930 933 962 912 903 902 897 952 888 925 931 899 890 938 903 950 978 816 860 962 959 951 894 962 963 963 920 936 881 954 909 952 862 902 958 867 947 928 962 909 914 960 894 942 939 961 920 893 893 880 880 963 896 905 945 899 948 910 918 935 1009 923 898 930 951 906 945 900 929 912 942 894 913 897 873 989 950 966 984 948 856 904 951 870 875 912 923 1024 948 924 935 901 894 947 902 910 928 970 882 934 916 987 969 986 898 952 918 885 904 969 903 887 924 939 901 892 925 897 951 896 879 883 878 885 873 892 921 920 978 931 1000 926 882 927 933 899 953 886 905 939 895 865 936 902 902 888 910 860 880 887 925 952 888 922 870 926 818 893 920 885 907 974 927 966 894 880 930 916 920 905 981 935 882 913 886 881 897 994 895 913 877 975 1024 911 899 897 929 895 921 935 844 946 879 940 897 920 875 892 904 934 921 890 981 989 925 939 951 855 985 973 967 941 900 975 948 903 878 889 931 899 966 941 962 882 932 961 988 960 936 909 987 905 951 913 953 909 938 976 987 989 974 922 961 988 966 929 956 972 965 981 938 972 894 988 964 926 955 993 919 908 951 974 950 950 938 926 971 853 972 966 963 938 929</counts>
			</dataPoints>
		</scan>
	</xrdMeasurement>
</xrdMeasurements>
