<?xml version="1.0"?>
<xrdMeasurements xmlns="http://www.xrdml.com/XRDMeasurement/2.3" xmlns:xsi="http://www.w3.org/2001/XMLSchema-instance" xsi:schemaLocation="http://www.xrdml.com/XRDMeasurement/2.3 http://www.xrdml.com/XRDMeasurement/2.3/XRDMeasurement.xsd" status="Completed" recordIdentifier="{0C97F544-B357-41BE-BD07-319E6ABCD0F2}">
	<comment>
		<entry/>
	</comment>
	<sample type="To be analyzed">
		<id>GPSS_Li1p4Fe0p8Ta0p2Cl4_112225_6921f967f4e53d1f72397d34</id>
		<name></name>
		<preparedBy></preparedBy>
	</sample>
	<xrdMeasurement measurementType="Scan" status="Completed" sampleMode="Reflection">
		<usedWavelength intended="K-Alpha 1">
			<kAlpha1 unit="Angstrom">1.5405980</kAlpha1>
			<kAlpha2 unit="Angstrom">1.5444260</kAlpha2>
			<kBeta unit="Angstrom">1.3922500</kBeta>
			<ratioKAlpha2KAlpha1>0.5000</ratioKAlpha2KAlpha1>
		</usedWavelength>
		<incidentBeamPath>
			<radius unit="mm">145.00</radius>
			<xRayTube id="1010048" name="Empyrean Cu LFF HR (9430 033 7310x)">
				<tension unit="kV">40.0</tension>
				<current unit="mA">15.0</current>
				<anodeMaterial>Cu</anodeMaterial>
				<focus type="Line">
					<length unit="mm">12.0</length>
					<width unit="mm">0.4</width>
					<takeOffAngle unit="deg">6.0</takeOffAngle>
				</focus>
			</xRayTube>
			<sollerSlit id="21010002" name="Soller slits 0.04 rad.">
				<opening unit="rad">0.0400</opening>
			</sollerSlit>
			<mask id="22031000" name="Fixed mask 13 mm">
				<width unit="mm">9.00</width>
			</mask>
			<divergenceSlit id="22120001" name="Divergence slit 1°" xsi:type="fixedDivergenceSlitType">
				<distanceToSample unit="mm">50.00</distanceToSample>
				<height unit="mm">1.52</height>
			</divergenceSlit>
		</incidentBeamPath>
		<sampleMovement xsi:type="spinningSampleMovementType">
			<spinnerRevolutionTime unit="seconds">1.0</spinnerRevolutionTime>
		</sampleMovement>
		<diffractedBeamPath>
			<radius unit="mm">145.00</radius>
			<antiScatterSlit id="22090040" name="AS slit 9 mm (PIXcel)" xsi:type="fixedAntiScatterSlitType">
				<height unit="mm">9.00</height>
			</antiScatterSlit>
			<sollerSlit id="21020003" name="Large Soller slits 0.04 rad.">
				<opening unit="rad">0.0400</opening>
			</sollerSlit>
			<filter id="20030001" name="Large beta-filter Nickel">
				<material>Ni</material>
				<thickness unit="mm">0.020</thickness>
			</filter>
			<detector id="7010019" name="PIXcel1D-Medipix3 detector" xsi:type="rtmsDetectorType">
				<phd unit="keV">
					<lowerLevel>4.02</lowerLevel>
					<upperLevel>11.27</upperLevel>
				</phd>
				<mode>Scanning</mode>
				<activeLength unit="deg">5.542</activeLength>
			</detector>
		</diffractedBeamPath>
		<scan appendNumber="0" mode="Continuous" scanAxis="Gonio" status="Completed">
			<header>
				<startTimeStamp>2025-11-24T12:51:45-08:00</startTimeStamp>
				<endTimeStamp>2025-11-24T12:59:52-08:00</endTimeStamp>
				<author>
					<name>AutomatedUser</name>
				</author>
				<source>
					<applicationSoftware version="1.7b (136)">PANalytical Aeris Instrument Suite</applicationSoftware>
					<instrumentControlSoftware version="3.2.00000000 20240306">AERIS</instrumentControlSoftware>
					<instrumentID>950485</instrumentID>
				</source>
			</header>
			<dataPoints>
				<positions axis="2Theta" unit="deg">
					<startPosition>10.00943322</startPosition>
					<endPosition>99.99442286</endPosition>
				</positions>
				<positions axis="Omega" unit="deg">
					<startPosition>5.00471661</startPosition>
					<endPosition>49.99721143</endPosition>
				</positions>
				<commonCountingTime unit="seconds">12.495</commonCountingTime>
				<counts unit="counts">2947 2788 2835 2918 2854 2985 2891 2890 2965 2936 2953 2839 2867 2959 2944 2916 2891 2873 2964 2878 2878 2910 2965 2914 2876 2940 2884 2895 2917 2925 2835 2966 2976 2889 2972 2977 2930 2883 2925 2984 2874 2970 2864 2952 2884 2894 2905 2842 2987 2934 2924 2860 2951 3011 3036 2962 2893 2932 2953 2988 2908 3007 3078 3005 3075 3073 3038 3064 2959 3108 3132 3153 3032 3054 3143 3005 3123 3201 3229 3067 3138 3201 3120 3079 3142 3140 2999 2979 3042 3065 2949 2967 3115 3028 3126 2966 3028 3059 2997 3007 2993 3061 3080 3003 3034 3045 3014 3003 3020 3006 3041 3000 2915 3089 3034 3063 2946 3140 2901 3050 3006 3013 2997 3050 2981 2992 2980 2978 2984 2823 2897 2976 2862 3037 2940 2912 2953 3133 2983 2966 3008 2898 2942 2993 2928 2913 3083 2943 2983 3003 3027 2932 3058 2977 2920 2873 2907 2995 3066 3011 3009 3001 2983 3069 2918 3008 2932 2874 2845 2893 3034 3049 2961 2963 2927 2982 3004 2913 2997 2965 3030 2977 2917 2945 3020 2925 2915 3001 2830 2907 2922 2891 2902 3006 2829 2955 2970 2971 2972 3110 2904 2940 2949 2931 2954 2963 2941 2972 2896 3006 2909 3067 2922 2934 2971 2904 2944 2973 2974 2979 2899 2896 2966 2921 2962 2894 2956 2920 2845 2931 2970 2856 2829 2970 2961 2910 2987 2889 2971 2872 2921 2908 2849 3000 2950 2970 3011 2917 2961 2974 2836 2936 2966 2841 2922 2851 2952 3014 2931 3067 2882 3024 2867 2959 2910 2985 2886 2952 2935 2907 2840 2945 2928 2954 2968 2840 2961 2962 2991 2997 2938 2947 2959 3010 2926 2881 2820 3032 3009 2949 2890 3012 2957 2956 2989 2939 2875 2939 2989 2889 2938 3005 2870 2967 3044 3031 2943 2956 3028 2995 3000 2905 3067 3009 3021 3059 3034 3065 2995 2950 2966 2978 2948 3019 3108 3003 3081 2961 3015 3024 3047 3097 3029 2998 3079 3064 3050 3038 3097 2997 3049 3153 3044 3113 3081 3160 3150 3163 3036 3086 3187 3202 3293 3074 3185 3092 3177 3198 3202 3253 3234 3225 3213 3216 3236 3221 3216 3217 3191 3229 3209 3154 3180 3233 3118 3277 3210 3327 3221 3295 3185 3206 3204 3275 3288 3195 3382 3229 3299 3341 3329 3276 3326 3357 3336 3427 3255 3425 3261 3306 3314 3383 3398 3313 3384 3318 3387 3431 3384 3457 3330 3320 3432 3470 3514 3500 3457 3489 3538 3426 3510 3533 3585 3450 3550 3746 3686 3630 3640 3722 3734 3770 3660 3858 3828 3766 3879 3894 3843 3862 3918 4064 3948 4131 4080 4068 4117 4172 4093 4072 4191 4169 4384 4123 4257 4272 4397 4434 4448 4442 4473 4536 4471 4390 4424 4267 4378 4217 4183 4161 3893 4126 3856 3842 3802 3930 3735 3712 3667 3662 3787 3618 3685 3720 3676 3611 3691 3688 3683 3629 3670 3632 3565 3586 3526 3603 3588 3603 3591 3557 3541 3502 3482 3483 3507 3560 3429 3556 3526 3412 3451 3408 3408 3464 3556 3331 3423 3411 3395 3387 3394 3381 3341 3405 3483 3376 3323 3479 3397 3352 3340 3284 3362 3335 3286 3255 3366 3360 3353 3261 3414 3380 3261 3302 3300 3325 3283 3362 3248 3305 3316 3398 3309 3385 3253 3290 3312 3234 3282 3334 3309 3216 3260 3382 3285 3318 3309 3276 3242 3274 3242 3087 3257 3269 3256 3228 3336 3326 3176 3196 3264 3213 3308 3176 3249 3226 3228 3064 3157 3260 3191 3196 3170 3156 3134 3277 3160 3223 3220 3121 3225 3182 3175 3130 3193 3021 3067 3182 3228 3210 3111 3194 3214 3251 3066 3133 3092 3070 3198 3136 3165 3138 3105 3213 3076 3215 3227 3160 3031 3177 3176 3191 3181 3144 3222 3131 3070 3108 3235 3235 3138 3166 3173 3172 3089 3096 3116 3205 3141 3153 3048 3130 3145 3211 3177 3175 3200 3159 3135 3116 3138 3042 3049 3049 3167 3129 3147 3065 3078 3234 3182 3070 3141 3045 3038 3048 3178 3182 3167 3112 3216 3252 3177 3047 3112 3097 3085 3100 3179 3091 3063 3155 3139 3128 3048 3196 3216 3175 3192 3097 3179 3001 3003 3126 3135 3063 3228 3204 3144 3196 3083 3115 3085 3097 3096 3114 3181 3086 3143 3179 3120 3072 3049 3019 3090 3084 3107 3094 3009 3035 3062 3150 3131 3029 3050 3070 3127 3183 3108 3074 3069 3051 3050 3035 3037 2974 3120 3105 3067 3053 3062 3097 3104 3145 3058 3103 2986 3021 3044 3024 3044 3023 3121 2916 3125 3121 3108 3051 3025 3034 3137 3001 3060 3068 3046 3050 3122 3194 3011 3063 3165 3168 3108 3015 3043 3023 3075 2982 3029 3052 3033 3051 3060 3028 3020 3184 3037 3059 3119 3073 3017 3131 3038 3116 2941 3058 3073 3008 3013 3025 2991 3073 3011 3034 3099 3078 3041 3024 2944 3027 3024 3115 2986 3099 3064 3054 3056 3093 3019 3031 3004 3055 3037 3056 3092 3110 3013 2971 3066 2915 3068 3028 3021 2983 3139 2953 3033 3029 3196 3120 2940 3025 3004 2945 2957 3022 2980 3052 2995 2976 3027 3032 3037 3001 2951 3082 3058 3037 3008 3059 3005 2986 2983 3088 2965 2995 2988 3036 2979 3166 3032 3032 2943 3041 2938 3048 2988 2964 2978 3092 2974 2985 3077 3052 2931 2941 2870 2945 3158 2951 3074 2964 2972 3039 2965 2997 3052 2968 3050 2942 3008 2959 2956 2924 2915 2924 2945 2951 3072 2963 3020 2972 3025 3067 3041 2918 3010 2981 2972 2973 2984 2900 3112 2925 2966 2834 2979 2959 2981 2960 3014 2950 2970 2886 3024 2952 2916 2938 2898 2885 2979 2903 2882 2858 2944 2887 2972 2917 2996 2917 2982 2970 2915 2886 2919 2971 2935 2948 2933 2942 2963 2937 2974 2831 2889 2936 2963 2943 3039 2841 2852 2828 2902 2923 2976 2890 2925 2892 2864 3015 2900 2943 2951 2867 2882 3014 2971 2923 2931 2943 2961 2946 2850 3066 2951 2904 2947 2933 2936 2963 2828 3038 2843 2940 2939 2946 2944 2989 3006 2893 3034 2978 2880 3000 2955 2958 2859 3016 2936 2885 2913 2862 2978 2893 2939 2875 2865 2992 2924 3016 2829 2865 2924 2917 2967 3009 2930 2950 2941 3013 2949 3041 2871 2985 2945 2976 2989 2971 2897 2938 3022 2972 3073 2942 2841 2934 2963 3005 2874 2958 2962 2921 2983 3000 2937 2926 3043 2960 2932 2997 2948 2944 2977 2969 2950 3064 2961 2955 2987 3030 2931 2935 3012 2888 3100 3029 3020 2974 2999 3046 2941 2973 2906 2995 3043 3100 2921 2973 2877 2943 2945 2947 2953 2993 3027 2942 2995 2978 2926 2962 2978 2967 3014 3057 2991 2993 2936 2882 2921 2919 2943 2955 3004 2976 2876 2911 2903 2926 2980 3041 3020 2810 2859 2933 3010 2873 2888 2914 2886 2898 2880 2868 2906 2990 2923 2851 2914 2887 2957 2779 2929 2864 2991 2902 2862 2947 2822 2865 2802 3036 2934 2855 2865 2859 2851 2883 2900 2950 2992 2809 2894 2803 2952 2918 2924 2862 2789 2827 2900 2822 2907 2911 2872 2855 2960 2816 2854 2848 2781 2824 2812 2875 2774 2781 2836 2806 2747 2750 2875 2763 2854 2846 2709 2751 2768 2751 2780 2745 2726 2787 2819 2794 2797 2754 2779 2707 2661 2812 2746 2797 2671 2745 2787 2721 2736 2685 2835 2761 2665 2662 2740 2764 2691 2715 2820 2743 2595 2640 2777 2674 2689 2709 2709 2721 2656 2629 2642 2674 2633 2723 2670 2656 2640 2575 2617 2702 2569 2599 2617 2678 2582 2650 2638 2688 2592 2547 2525 2592 2655 2588 2645 2567 2636 2498 2484 2567 2489 2571 2570 2591 2658 2635 2676 2651 2623 2608 2525 2589 2483 2615 2513 2541 2561 2575 2582 2550 2540 2608 2564 2380 2570 2608 2645 2432 2507 2561 2559 2612 2501 2596 2538 2616 2597 2540 2556 2595 2504 2604 2498 2586 2561 2520 2518 2550 2555 2507 2527 2566 2537 2572 2432 2527 2415 2611 2503 2379 2461 2545 2456 2531 2420 2498 2475 2412 2499 2451 2461 2518 2531 2503 2525 2441 2474 2492 2409 2481 2485 2416 2403 2568 2417 2452 2578 2475 2437 2443 2479 2470 2413 2538 2418 2401 2408 2534 2547 2549 2508 2392 2524 2452 2502 2441 2541 2477 2456 2475 2511 2462 2439 2525 2426 2510 2507 2473 2428 2487 2483 2515 2460 2528 2460 2379 2486 2476 2458 2509 2551 2460 2508 2426 2522 2484 2456 2527 2530 2562 2493 2470 2564 2486 2459 2447 2426 2495 2546 2465 2409 2477 2375 2605 2435 2417 2484 2443 2511 2458 2440 2512 2469 2561 2457 2553 2526 2604 2451 2549 2488 2447 2513 2448 2557 2506 2444 2529 2530 2542 2466 2546 2493 2401 2514 2546 2484 2447 2531 2514 2493 2530 2591 2418 2495 2465 2491 2524 2520 2520 2518 2518 2532 2458 2593 2496 2520 2475 2619 2541 2478 2497 2505 2455 2463 2450 2513 2526 2495 2487 2449 2393 2541 2416 2375 2427 2447 2572 2554 2441 2419 2535 2436 2475 2554 2509 2503 2505 2463 2525 2604 2525 2572 2485 2481 2511 2492 2518 2573 2456 2461 2436 2392 2416 2468 2475 2380 2576 2421 2391 2461 2413 2424 2519 2489 2492 2455 2424 2451 2440 2350 2470 2407 2521 2440 2446 2410 2381 2434 2466 2388 2434 2372 2409 2400 2479 2379 2453 2435 2485 2368 2334 2376 2475 2401 2411 2360 2420 2393 2499 2412 2382 2335 2415 2483 2394 2406 2358 2360 2362 2331 2278 2353 2376 2314 2361 2367 2377 2414 2361 2510 2302 2324 2406 2378 2287 2319 2358 2322 2390 2339 2357 2327 2267 2262 2226 2294 2343 2314 2281 2383 2368 2399 2408 2340 2278 2355 2258 2317 2262 2295 2246 2339 2307 2287 2246 2252 2334 2260 2322 2277 2295 2382 2219 2308 2247 2273 2340 2256 2281 2338 2298 2328 2276 2288 2299 2315 2294 2222 2316 2291 2215 2228 2386 2290 2214 2343 2287 2246 2277 2364 2221 2291 2339 2317 2365 2346 2266 2374 2406 2390 2308 2408 2493 2326 2372 2436 2458 2585 2465 2520 2497 2460 2537 2593 2654 2701 2732 2737 2640 2781 2738 2781 2817 2676 2799 2864 2907 2859 2902 2979 2980 3019 2964 3058 2998 3044 3011 3171 2976 3112 3012 2995 2997 2888 2768 2728 2770 2600 2633 2538 2560 2523 2517 2402 2522 2424 2468 2455 2489 2480 2428 2374 2256 2355 2425 2367 2405 2307 2317 2268 2320 2228 2348 2314 2255 2266 2301 2354 2276 2345 2219 2210 2270 2246 2151 2140 2306 2169 2280 2152 2084 2160 2243 2215 2137 2142 2158 2197 2139 2123 2132 2118 2257 2149 2152 2163 2222 2129 2152 2163 2222 2212 2176 2127 2207 2231 2178 2224 2189 2319 2276 2346 2354 2367 2435 2368 2463 2435 2499 2498 2563 2517 2531 2713 2656 2652 2724 2799 2872 2924 2898 3033 3042 2946 2988 3196 3172 3253 3171 3214 3323 3399 3465 3420 3432 3466 3525 3494 3556 3219 3353 3322 3170 3115 2938 2898 2861 2772 2698 2647 2508 2594 2508 2461 2489 2422 2420 2380 2395 2412 2351 2225 2261 2359 2315 2230 2259 2221 2158 2268 2241 2157 2245 2197 2202 2212 2191 2217 2128 2051 2060 2145 2119 2037 1992 2105 2016 2136 2108 2075 1994 1978 2059 2033 2089 2040 2113 2015 2065 2039 1951 1993 1980 1986 2077 2065 1999 2080 2021 1983 2034 1996 2028 1986 2007 1987 2091 2083 2023 2005 1929 1965 1997 1921 1978 1935 2019 1945 1976 1957 1922 1953 1951 1949 1882 1904 1987 1973 1938 1967 1975 1882 1987 1973 1970 1984 1909 2037 1973 1971 1916 1963 1950 1958 1872 2008 1940 1968 1936 1967 1913 1971 1948 1923 1915 1957 2005 1944 2036 1911 1999 1982 1927 1992 1845 1966 1908 1883 1936 1961 1971 1937 1857 1988 1906 2012 2000 1951 1995 1967 1944 1971 1889 1945 1916 1900 1935 1988 1995 1954 1978 2038 1901 1977 1937 1865 1925 1854 2006 1892 1878 1988 1929 1959 1945 1858 1974 1919 1945 1931 1905 1948 1887 1924 1913 1937 1960 1910 1958 1845 1891 1982 1960 2002 1937 2040 1995 1928 1895 1947 1933 1953 1879 1962 1985 1919 1903 2076 1912 1916 1924 1952 2014 1971 1936 1912 1970 2018 1953 2002 2010 2013 1988 2014 2106 2079 2082 2130 2029 2143 2121 2135 2120 2148 2191 2114 2085 2187 2227 2176 2267 2238 2233 2253 2233 2208 2237 2288 2177 2272 2239 2182 2201 2137 2158 2091 2215 2197 2105 2101 2128 2156 2095 2124 2134 2117 2096 2037 2084 2078 2058 2172 2097 2113 2078 2058 2051 2086 2080 2101 2129 1981 2112 2051 2050 2100 2050 2018 2006 2020 1992 1951 2023 1928 2017 2052 1972 1939 1939 1989 1908 1943 1939 2075 1951 1973 1880 2030 1925 1947 1938 1920 1928 1880 1895 1925 2000 1969 1941 1922 1983 1945 1934 1992 1961 1968 1994 1910 1938 1934 1962 1963 1870 1951 1940 1984 1924 2044 1913 1954 1974 1938 1901 1931 1873 1945 1943 1928 1925 1998 1930 1902 1896 2027 1882 1920 1845 1934 1955 1980 1914 2015 1934 2000 1938 1888 2015 1870 1918 1982 1993 1952 1869 1973 1947 1918 2041 1984 1932 2005 1990 2002 1986 2009 2062 1997 2127 2140 2043 2057 2254 2243 2263 2361 2432 2452 2492 2598 2598 2657 2803 2743 2900 2956 3180 3118 3407 3532 3636 3711 3849 3981 4115 4345 4414 4618 4536 4737 4860 4860 5046 5333 5442 5601 5677 5877 5862 6105 6172 6412 6391 6573 6468 6358 6327 6313 6073 5777 5563 5310 5071 4929 4609 4385 4182 4025 3854 3632 3500 3421 3347 3136 3091 2914 2968 2888 2849 2790 2749 2821 2674 2699 2733 2566 2555 2519 2519 2467 2428 2407 2290 2390 2235 2267 2271 2222 2294 2182 2139 2205 2147 2073 2160 2006 1985 1999 2018 2042 1988 1913 1992 2036 2013 2036 2035 2056 2063 1937 2026 1927 1967 2033 1989 1978 1943 1978 1942 1979 1930 1869 1912 1951 1913 2023 1911 1815 1997 1912 1882 1957 1933 1948 1903 1800 1914 1916 1956 1865 1898 1917 1978 1913 1950 1962 1911 2024 1904 1833 1903 1915 1901 1884 1884 1861 2044 1902 1933 2060 1888 1973 1917 1985 1873 1939 1890 1978 1899 1931 1932 1908 1905 1930 1924 1908 1941 1855 1917 1778 1953 1946 1884 1878 1927 1840 1922 1819 1852 1838 1951 1822 1966 1902 1875 1831 1886 1878 1850 1896 1882 1860 1877 1818 1930 1900 1941 1806 1898 1929 1902 1889 1851 1988 1844 1912 1893 1842 1881 1880 1878 1923 1865 1882 1852 1909 1894 1960 1819 1880 1795 1885 1853 1863 1896 1873 1873 1908 1893 1808 1852 1784 1844 1899 1928 1859 1970 1845 1838 1891 1911 1898 1902 1886 1921 1768 1857 1915 1889 1873 1851 1845 1897 1863 1840 1784 1900 1882 1925 1842 1834 1811 1866 1937 1925 1865 1788 1907 1795 1857 1888 1841 1881 1821 1828 1805 1841 1822 1835 1852 1861 1844 1897 1789 1919 1912 1801 1785 1856 1871 1850 1880 1804 1877 1869 1863 1911 1822 1863 1796 1858 1873 1837 1822 1909 1810 1911 1918 1842 1809 1945 1887 1936 1893 2060 1848 1942 1882 1926 1915 1896 1779 1793 1849 1988 1883 1898 1903 1910 1943 1924 1869 1940 1883 1854 1886 1872 1862 1857 1909 1816 1811 1922 1855 1800 1906 1862 1820 1807 1892 1888 1909 1829 1896 1741 1898 1812 1775 1856 1770 1807 1852 1828 1930 1822 1805 1863 1795 1785 1794 1800 1829 1772 1875 1822 1849 1682 1806 1791 1783 1882 1780 1852 1784 1793 1797 1788 1824 1838 1790 1778 1799 1885 1779 1752 1888 1763 1849 1816 1810 1809 1775 1772 1846 1844 1814 1848 1837 1791 1817 1838 1819 1791 1760 1814 1822 1834 1813 1810 1877 1889 1834 1840 1750 1847 1777 1848 1795 1792 1732 1835 1828 1832 1782 1784 1819 1841 1738 1835 1863 1731 1825 1818 1734 1797 1818 1738 1832 1823 1686 1855 1760 1787 1776 1848 1755 1822 1779 1810 1859 1873 1764 1810 1812 1779 1850 1743 1833 1798 1753 1798 1810 1677 1729 1748 1762 1809 1772 1800 1810 1809 1777 1810 1804 1794 1724 1789 1790 1710 1763 1774 1816 1805 1787 1784 1747 1770 1837 1774 1787 1716 1791 1752 1776 1735 1886 1769 1777 1845 1808 1731 1879 1869 1756 1735 1784 1807 1800 1767 1761 1667 1817 1797 1730 1794 1812 1816 1697 1867 1802 1747 1748 1819 1793 1766 1771 1755 1864 1753 1785 1846 1730 1765 1817 1780 1826 1841 1842 1744 1685 1879 1785 1822 1782 1794 1755 1820 1754 1784 1771 1758 1763 1755 1768 1820 1793 1721 1791 1725 1791 1721 1784 1735 1757 1763 1817 1842 1819 1726 1720 1711 1805 1740 1751 1787 1794 1778 1694 1755 1768 1783 1751 1756 1783 1761 1763 1779 1817 1784 1785 1805 1733 1747 1762 1716 1846 1750 1802 1754 1713 1709 1730 1769 1811 1711 1671 1760 1803 1776 1834 1717 1808 1788 1724 1726 1809 1743 1763 1785 1714 1779 1739 1762 1759 1784 1731 1721 1751 1772 1686 1776 1739 1843 1761 1733 1701 1731 1774 1791 1761 1721 1831 1744 1722 1784 1797 1830 1729 1789 1724 1671 1723 1711 1735 1683 1864 1774 1876 1755 1824 1878 1761 1740 1765 1754 1761 1754 1761 1782 1723 1823 1706 1775 1796 1825 1751 1787 1724 1778 1765 1758 1785 1734 1782 1758 1765 1797 1769 1802 1700 1709 1809 1811 1724 1758 1803 1753 1791 1780 1728 1789 1819 1755 1753 1747 1842 1802 1803 1761 1717 1786 1735 1758 1728 1843 1811 1753 1779 1795 1797 1774 1794 1782 1740 1765 1772 1816 1696 1769 1828 1774 1751 1761 1791 1823 1757 1781 1776 1725 1813 1723 1675 1737 1737 1793 1867 1730 1729 1791 1793 1769 1850 1763 1809 1790 1809 1765 1673 1781 1717 1820 1709 1787 1712 1774 1708 1764 1784 1889 1818 1696 1814 1707 1722 1862 1789 1749 1817 1771 1761 1826 1840 1753 1786 1847 1776 1835 1751 1836 1816 1774 1770 1676 1739 1870 1796 1801 1737 1858 1808 1844 1705 1789 1810 1719 1806 1804 1726 1795 1757 1782 1733 1725 1801 1760 1767 1809 1753 1809 1809 1760 1764 1765 1773 1747 1716 1815 1817 1797 1806 1740 1722 1842 1755 1753 1784 1729 1734 1778 1703 1770 1820 1801 1784 1815 1770 1803 1737 1782 1793 1810 1782 1766 1792 1833 1861 1812 1771 1801 1814 1730 1779 1865 1752 1753 1798 1808 1756 1786 1799 1787 1806 1782 1793 1844 1860 1803 1803 1821 1786 1792 1838 1845 1749 1801 1798 1790 1772 1730 1721 1872 1837 1768 1844 1856 1896 1869 1811 1808 1807 1827 1833 1817 1739 1813 1796 1730 1874 1794 1814 1805 1862 1879 1878 1786 1822 1823 1831 1845 1784 1808 1858 1735 1786 1755 1756 1808 1838 1774 1756 1784 1869 1758 1787 1879 1788 1745 1761 1752 1803 1803 1835 1775 1792 1718 1883 1762 1809 1817 1764 1782 1765 1791 1805 1724 1752 1761 1656 1724 1796 1751 1767 1807 1748 1772 1799 1840 1809 1860 1802 1747 1749 1683 1753 1802 1801 1766 1782 1763 1793 1830 1794 1895 1902 1873 1843 1772 1888 1911 1900 1880 1992 1946 1919 1956 2010 1972 2048 1930 2013 2051 2008 2123 2049 2042 2136 2163 2137 2186 2200 2297 2349 2336 2348 2426 2447 2528 2392 2452 2312 2422 2374 2414 2276 2419 2355 2342 2278 2252 2219 2185 2161 2067 2103 2080 2057 2051 2042 1970 1977 1910 1967 1878 1888 1885 1899 1875 1822 1869 1857 1865 1856 1802 1867 1819 1820 1858 1882 1777 1819 1863 1800 1824 1883 1871 1758 1742 1918 1847 1816 1774 1797 1677 1797 1770 1801 1770 1792 1852 1829 1822 1760 1837 1660 1738 1707 1814 1798 1764 1783 1753 1664 1761 1754 1750 1676 1789 1679 1676 1721 1738 1815 1694 1827 1713 1708 1776 1694 1729 1753 1804 1805 1721 1761 1769 1813 1810 1763 1825 1779 1759 1696 1815 1699 1785 1771 1801 1803 1802 1765 1805 1713 1847 1717 1805 1819 1784 1771 1758 1809 1769 1861 1801 1806 1812 1775 1733 1696 1702 1776 1788 1716 1783 1868 1793 1848 1843 1756 1806 1788 1729 1812 1794 1811 1697 1729 1759 1765 1836 1763 1807 1800 1753 1694 1734 1769 1789 1748 1787 1742 1797 1685 1785 1755 1832 1708 1722 1727 1759 1826 1724 1788 1756 1729 1762 1739 1724 1707 1774 1766 1711 1848 1794 1813 1766 1773 1785 1765 1752 1829 1777 1709 1807 1808 1780 1866 1769 1709 1754 1747 1778 1765 1813 1738 1690 1752 1724 1723 1745 1769 1792 1733 1752 1761 1684 1833 1780 1808 1748 1709 1754 1776 1798 1769 1866 1855 1819 1747 1820 1788 1858 1835 1824 1764 1761 1738 1818 1794 1787 1747 1809 1754 1824 1788 1793 1737 1807 1818 1730 1891 1835 1718 1653 1753 1782 1707 1857 1776 1909 1792 1706 1718 1773 1832 1819 1783 1795 1808 1820 1911 1778 1795 1778 1771 1776 1769 1760 1727 1722 1732 1815 1821 1775 1839 1881 1916 1843 1870 1813 1864 1687 1853 1833 1797 1837 1763 1844 1843 1788 1761 1650 1811 1784 1845 1820 1814 1799 1745 1804 1797 1807 1791 1809 1769 1744 1841 1784 1840 1810 1772 1804 1787 1755 1837 1842 1892 1811 1778 1812 1831 1805 1787 1894 1848 1874 1825 1783 1890 1794 1864 1852 1899 1874 1863 1912 1812 1885 1948 1903 1899 1950 1941 1990 2000 1969 1970 2001 2024 2047 2146 2170 2191 2174 2261 2294 2328 2241 2405 2449 2593 2707 2721 2951 3000 3081 3227 3353 3427 3552 3662 3725 3808 3944 4190 4167 4548 4559 4588 4831 4912 5004 5133 5119 5271 5038 4914 4838 4651 4554 4412 4212 4263 4157 3979 3798 3809 3679 3348 3219 3368 2974 2985 2809 2924 2704 2681 2666 2605 2503 2471 2459 2404 2362 2336 2259 2346 2335 2272 2238 2291 2141 2234 2209 2161 2153 2206 2061 2142 2077 2088 2054 2042 1902 2003 1989 1918 1921 1944 1864 1980 1902 1855 1890 1939 1922 1855 1892 1793 1827 1912 1794 1825 1865 1836 1778 1872 1777 1840 1817 1843 1855 1882 1838 1819 1834 1883 1816 1838 1910 1840 1851 1856 1832 1813 1787 1800 1807 1890 1903 1827 1873 1835 1844 1839 1827 1775 1829 1807 1842 1827 1817 1871 1755 1831 1763 1744 1811 1898 1750 1803 1848 1896 1859 1740 1771 1896 1868 1900 1731 1811 1836 1797 1834 1806 1821 1846 1776 1873 1763 1776 1771 1843 1777 1821 1857 1818 1766 1705 1822 1860 1846 1835 1791 1763 1892 1818 1823 1733 1848 1790 1825 1754 1796 1849 1724 1886 1789 1797 1826 1804 1815 1765 1764 1801 1834 1807 1798 1760 1785 1814 1707 1849 1905 1717 1819 1839 1715 1814 1735 1870 1832 1759 1866 1805 1831 1691 1772 1795 1836 1799 1756 1836 1786 1856 1910 1767 1959 1863 1993 1942 1934 2005 1975 1964 1983 1882 2044 2032 2157 2083 2048 2060 2161 2165 2201 2158 2188 2174 2129 2150 2170 2077 2113 2037 2051 2112 2007 2083 2056 1981 2070 2007 1906 2006 1938 1991 1942 1866 1869 1928 1904 1937 1884 1847 1827 1834 1902 1764 1788 1838 1902 1826 1885 1716 1784 1832 1786 1758 1718 1789 1759 1783 1804 1779 1794 1743 1737 1813 1852 1744 1716 1766 1868 1781 1748 1774 1778 1856 1735 1741 1774 1754 1728 1756 1773 1806 1755 1831 1780 1844 1759 1783 1738 1848 1706 1814 1743 1800 1710 1832 1711 1759 1769 1784 1862 1764 1768 1761 1788 1697 1828 1741 1750 1778 1728 1716 1780 1772 1706 1721 1818 1747 1791 1833 1796 1806 1748 1743 1759 1701 1761 1756 1754 1782 1767 1758 1774 1740 1818 1780 1624 1760 1772 1807 1732 1771 1776 1699 1847 1710 1700 1716 1782 1731 1723 1800 1777 1874 1690 1753 1672 1720 1738 1754 1818 1812 1771 1753 1826 1731 1828 1711 1706 1817 1732 1826 1710 1789 1829 1737 1724 1784 1694 1747 1722 1678 1817 1754 1854 1746 1700 1771 1729 1693 1731 1765 1818 1829 1727 1764 1783 1744 1771 1785 1754 1712 1802 1789 1840 1657 1742 1687 1744 1775 1681 1788 1749 1799 1674 1692 1723 1801 1735 1759 1779 1779 1768 1720 1794 1765 1798 1798 1735 1809 1778 1672 1715 1731 1750 1794 1743 1761 1749 1746 1747 1818 1746 1724 1768 1694 1762 1674 1738 1715 1717 1827 1833 1752 1738 1782 1783 1768 1742 1761 1728 1761 1725 1842 1754 1697 1774 1721 1719 1781 1754 1794 1744 1740 1819 1686 1710 1835 1771 1810 1667 1738 1749 1740 1744 1803 1747 1707 1739 1787 1701 1813 1779 1707 1722 1783 1682 1722 1700 1743 1798 1804 1760 1836 1736 1734 1767 1763 1710 1739 1661 1756 1795 1702 1713 1787 1857 1710 1747 1684 1754 1784 1765 1712 1753 1742 1760 1693 1757 1797 1828 1762 1755 1763 1811 1783 1745 1844 1734 1733 1805 1717 1745 1795 1774 1795 1811 1773 1856 1816 1723 1818 1744 1814 1695 1790 1764 1744 1765 1748 1815 1852 1708 1742 1772 1687 1776 1827 1842 1825 1837 1757 1720 1783 1712 1784 1752 1766 1786 1781 1761 1799 1720 1747 1759 1749 1742 1765 1735 1673 1733 1812 1796 1768 1840 1726 1728 1818 1812 1721 1731 1726 1768 1732 1748 1710 1728 1758 1758 1807 1762 1730 1809 1679 1783 1761 1845 1743 1768 1738 1726 1803 1747 1728 1757 1688 1803 1785 1786 1675 1795 1691 1828 1747 1766 1733 1733 1733 1781 1770 1693 1811 1751 1781 1774 1805 1732 1748 1762 1753 1764 1783 1753 1754 1775 1779 1708 1772 1779 1735 1726 1835 1764 1682 1728 1730 1663 1792 1722 1719 1731 1701 1756 1769 1790 1786 1746 1747 1763 1773 1722 1787 1704 1704 1731 1762 1734 1740 1733 1766 1764 1658 1800 1697 1750 1692 1776 1710 1713 1737 1743 1698 1763 1708 1768 1770 1775 1723 1699 1724 1694 1763 1724 1762 1743 1748 1866 1775 1781 1774 1686 1692 1715 1751 1770 1756 1799 1725 1744 1733 1726 1697 1776 1647 1686 1794 1771 1719 1758 1723 1767 1781 1835 1712 1843 1768 1690 1689 1733 1759 1781 1812 1829 1757 1714 1717 1805 1763 1791 1778 1775 1758 1831 1830 1695 1913 1842 1820 1795 1836 1800 1803 1759 1840 1888 1812 1843 1816 1835 1825 1821 1853 1830 1771 1873 1784 1772 1840 1800 1813 1865 1809 1818 1852 1783 1822 1773 1683 1822 1769 1715 1954 1821 1785 1826 1867 1735 1852 1835 1788 1764 1752 1713 1809 1895 1775 1820 1776 1825 1835 1868 1791 1875 1830 1843 1857 1885 1949 1848 1966 1865 1928 1910 1884 1993 1913 2009 2036 2038 2007 2009 2076 2054 2179 2076 2169 2044 2109 2088 2105 2010 2071 1993 2008 2038 2028 2047 2000 2029 1953 2029 1996 2028 1862 1967 1931 1976 1920 1915 1895 1875 1938 1880 1841 1814 1775 1830 1808 1846 1818 1854 1793 1822 1794 1775 1810 1865 1870 1777 1874 1844 1859 1810 1792 1786 1816 1871 1822 1799 1707 1828 1836 1791 1804 1771 1726 1839 1787 1757 1735 1797 1809 1822 1852 1777 1763 1731 1804 1708 1721 1737 1768 1761 1755 1725 1738 1728 1824 1673 1803 1680 1719 1734 1704 1663 1757 1751 1765 1839 1762 1799 1764 1744 1707 1687 1718 1720 1709 1734 1771 1764 1786 1776 1746 1730 1725 1726 1701 1730 1734 1801 1751 1810 1743 1766 1779 1689 1818 1741 1795 1712 1750 1777 1750 1827 1691 1737 1724 1712 1652 1783 1756 1782 1686 1731 1772 1730 1709 1763 1706 1671 1742 1704 1634 1652 1815 1822 1676 1678 1820 1814 1755 1665 1798 1693 1748 1822 1741 1813 1767 1776 1764 1724 1776 1867 1702 1825 1727 1749 1836 1724 1697 1772 1764 1706 1773 1770 1783 1763 1727 1750 1684 1802 1793 1736 1749 1744 1743 1769 1737 1717 1736 1724 1734 1758 1812 1747 1810 1765 1789 1797 1700 1707 1684 1789 1787 1698 1765 1701 1764 1761 1738 1746 1737 1691 1776 1769 1761 1775 1789 1746 1779 1767 1818 1780 1752 1773 1793 1825 1843 1807 1843 1818 1753 1848 1794 1885 1852 1893 1899 1938 1954 1957 1935 2051 2000 2066 2052 2099 2246 2159 2211 2251 2265 2337 2292 2310 2355 2416 2462 2437 2567 2499 2629 2569 2528 2514 2418 2511 2514 2344 2375 2322 2249 2366 2262 2214 2247 2160 2132 2184 2113 2219 2084 2075 2059 2013 2013 1987 1944 1946 1968 1945 1963 1921 1879 1956 1845 1886 1869 1924 1850 1863 1795 1827 1822 1841 1820 1793 1797 1816 1799 1796 1827 1740 1748 1781 1782 1783 1882 1740 1795 1701 1825 1728 1816 1756 1733 1791 1719 1749 1738 1746 1733 1793 1783 1758 1730 1814 1743 1739 1776 1788 1746 1754 1718 1709 1812 1798 1725 1744 1805 1675 1752 1687 1763 1745 1769 1742 1691 1671 1685 1771 1740 1798 1749 1774 1720 1690 1775 1783 1673 1727 1796 1720 1707 1710 1730 1686 1806 1703 1777 1708 1755 1725 1687 1680 1732 1756 1771 1744 1730 1721 1821 1714 1810 1746 1746 1666 1793 1720 1817 1701 1751 1720 1700 1688 1731 1737 1842 1750 1783 1772 1777 1727 1775 1767 1717 1754 1792 1772 1702 1771 1738 1759 1806 1719 1751 1705 1765 1761 1730 1794 1768 1771 1791 1762 1754 1698 1794 1764 1833 1827 1849 1871 1934 1923 1870 1866 1858 1977 1917 1998 1937 1937 1910 1966 2002 1976 1959 1942 1987 1938 1858 1934 1859 1867 1891 1916 1898 1911 1814 1861 1788 1832 1824 1818 1774 1949 1818 1819 1826 1789 1891 1782 1754 1754 1694 1813 1779 1805 1828 1799 1779 1752 1782 1759 1768 1847 1804 1699 1806 1756 1682 1753 1659 1763 1804 1797 1805 1726 1809 1782 1742 1682 1807 1670 1704 1736 1769 1764 1738 1765 1792 1793 1743 1707 1745 1715 1640 1650 1785 1687 1709 1778 1688 1715 1693 1716 1692 1800 1706 1682 1722 1757 1726 1691 1760 1796 1704 1742 1790 1683 1683 1682 1656 1762 1736 1785 1744 1794 1729 1716 1769 1722 1723 1757 1728 1724 1699 1733 1739 1668 1645 1800 1695 1758 1765 1717 1778 1715 1691 1781 1684 1693 1758 1712 1608 1652 1742 1687 1769 1824 1730 1663 1698 1689 1696 1747 1731 1716 1753 1677 1730 1767 1775 1644 1715 1778 1667 1746 1755 1619 1755 1750 1805 1667 1670 1649 1692 1724 1707 1622 1719 1755 1679 1784 1681 1712 1735 1774 1696 1769 1815 1681 1779 1691 1700 1756 1736 1741 1707 1707 1763 1773 1770 1721 1788 1716 1718 1762 1783 1735 1787 1676 1687 1758 1694 1766 1653 1679 1707 1759 1711 1740 1736 1763 1775 1665 1740 1721 1779 1726 1717 1695 1721 1714 1749 1649 1668 1691 1653 1700 1729 1724 1774 1761 1758 1758 1749 1677 1702 1713 1773 1757 1674 1678 1766 1773 1748 1714 1667 1698 1743 1761 1680 1705 1796 1623 1741 1720 1811 1756 1707 1771 1739 1649 1716 1672 1741 1768 1801 1655 1698 1747 1666 1738 1737 1680 1668 1706 1713 1672 1734 1682 1657 1781 1706 1676 1706 1714 1778 1712 1711 1683 1725 1675 1761 1715 1677 1709 1782 1692 1744 1764 1628 1761 1753 1715 1742 1608 1642 1738 1695 1700 1766 1771 1738 1762 1802 1758 1748 1736 1750 1769 1711 1726 1643 1747 1689 1716 1650 1763 1700 1805 1694 1684 1667 1762 1755 1687 1731 1822 1675 1694 1613 1776 1672 1716 1670 1704 1681 1662 1787 1790 1686 1725 1700 1713 1802 1704 1737 1704 1661 1745 1690 1730 1743 1644 1746 1712 1771 1732 1730 1689 1717 1760 1657 1749 1769 1679 1696 1728 1772 1728 1788 1730 1669 1729 1752 1676 1709 1617 1678 1776 1810 1715 1637 1716 1620 1702 1615 1684 1672 1729 1698 1718 1725 1724 1695 1713 1728 1659 1707 1672 1746 1690 1748 1729 1699 1728 1694 1732 1753 1725 1678 1727 1721 1719 1709 1771 1744 1623 1693 1697 1660 1731 1682 1721 1723 1706 1740 1738 1704 1672 1713 1740 1733 1786 1765 1711 1738 1699 1768 1740 1748 1734 1737 1742 1690 1750 1735 1726 1757 1725 1701 1733 1758 1754 1727 1677 1749 1692 1748 1719 1759 1728 1769 1801 1800 1689 1705 1770 1706 1764 1769 1792 1775 1747 1691 1741 1744 1734 1747 1738 1719 1741 1795 1782 1785 1836 1859 1810 1843 1828 1828 1792 1785 1832 1852 1695 1829 1787 1821 1782 1789 1837 1832 1833 1890 1806 1836 1820 1776 1765 1814 1776 1776 1817 1804 1799 1809 1830 1765 1763 1814 1719 1780 1761 1732 1863 1799 1757 1793 1760 1715 1801 1735 1753 1710 1734 1712 1810 1734 1755 1770 1714 1705 1790 1707 1745 1729 1744 1747 1781 1727 1718 1766 1724 1792 1756 1748 1698 1691 1766 1794 1657 1737 1731 1763 1778 1711 1716 1709 1641 1736 1739 1753 1691 1733 1666 1697 1673 1725 1738 1691 1696 1732 1681 1778 1738 1742 1725 1696 1778 1737 1686 1730 1665 1652 1750 1731 1731 1735 1737 1741 1727 1713 1737 1656 1721 1659 1774 1742 1740 1829 1638 1672 1735 1769 1695 1714 1664 1724 1677 1722 1738 1700 1746 1820 1662 1677 1698 1639 1753 1738 1788 1742 1713 1722 1727 1747 1716 1778 1864 1676 1674 1706 1729 1746 1674 1734 1741 1717 1724 1779 1698 1741 1654 1751 1746 1703 1779 1730 1756 1729 1717 1808 1758 1774 1723 1714 1651 1695 1717 1720 1686 1697 1724 1735 1723 1752 1662 1708 1769 1749 1733 1664 1696 1811 1712 1717 1654 1723 1646 1705 1703 1720 1748 1703 1670 1664 1726 1712 1681 1693 1685 1739 1683 1718 1743 1770 1816 1746 1711 1757 1691 1744 1701 1682 1692 1724 1667 1658 1838 1827 1684 1696 1800 1641 1633 1753 1693 1718 1782 1646 1676 1711 1715 1812 1780 1722 1743 1728 1727 1770 1700 1741 1794 1763 1749 1711 1755 1701 1673 1755 1679 1716 1671 1740 1727 1589 1660 1768 1686 1705 1709 1723 1688 1742 1758 1681 1736 1756 1727 1814 1737 1792 1715 1727 1741 1612 1745 1736 1774 1852 1748 1849 1782 1809 1881 1917 1857 1928 1925 1904 1924 1915 1872 1914 1959 1934 1865 1991 1954 1934 2079 1933 2005 1988 1981 1969 1977 2028 1946 1955 2043 1912 1942 1997 1974 2011 1930 1862 1945 1967 1906 1984 1892 1933 1854 1889 1928 1914 1913 1851 1805 1799 1842 1775 1836 1788 1800 1865 1706 1798 1746 1737 1759 1852 1773 1795 1735 1756 1762 1766 1769 1710 1742 1813 1754 1737 1720 1754 1773 1815 1775 1778 1804 1705 1722 1794 1703 1718 1721 1740 1676 1725 1676 1669 1716 1796 1704 1709 1707 1740 1780 1717 1758 1745 1702 1691 1787 1787 1693 1712 1622 1744 1736 1715 1750 1601 1761 1682 1685 1744 1718 1716 1745 1723 1664 1782 1712 1736 1715 1643 1760 1758 1666 1716 1692 1718 1732 1754 1715 1681 1746 1738 1642 1814 1673 1633 1726 1712 1734 1694 1758 1662 1703 1711 1677 1720 1668 1737 1723 1709 1793 1666 1763 1727 1711 1740 1723 1713 1689 1673 1710 1762 1723 1659 1737 1682 1651 1792 1751 1666 1733 1779 1714 1623 1740 1711 1753 1711 1719 1712 1684 1741 1618 1705 1711 1709 1696 1747 1727 1649 1710 1720 1687 1657 1755 1622 1716 1789 1656 1688 1720 1744 1694 1795 1761 1746 1715 1734 1678 1582 1748 1710 1655 1761 1673 1730 1695 1663 1643 1632 1627 1719 1667 1731 1692 1748 1702 1718 1715 1737 1690 1763 1721 1729 1795 1741 1748 1684 1678 1730 1713 1683 1627 1714 1700 1700 1757 1741 1621 1759 1752 1728 1717 1685 1691 1745 1775 1679 1701 1671 1704 1701 1704 1739 1761 1725 1728 1804 1722 1707 1701 1742 1690 1740 1677 1698 1750 1756 1684 1671 1696 1686 1666 1713 1725 1749 1764 1702 1693 1665 1739 1689 1695 1721 1768 1662 1648 1751 1742 1751 1743 1732 1676 1732 1735 1729 1722 1678 1721 1674 1790 1675 1683 1680 1746 1762 1731 1798 1718 1749 1714 1746 1691 1756 1723 1733 1683 1632 1665 1769 1847 1777 1598 1720 1685 1793 1718 1706 1745 1775 1701 1760 1769 1678 1720 1758 1705 1751 1678 1630 1682 1769 1717 1719 1770 1709 1739 1758 1733 1724 1739 1653 1749 1718 1720 1747 1710 1716 1762 1707 1724 1711 1845 1682 1643 1764 1746 1744 1760 1660 1702 1652 1719 1694 1753 1675 1765 1733 1673 1768 1695 1706 1786 1717 1695 1729 1730 1674 1678 1799 1747 1700 1744 1748 1691 1737 1718 1710 1781 1711 1712 1686 1778 1746 1771 1737 1722 1781 1753 1771 1749 1709 1793 1709 1751 1816 1788 1685 1657 1704 1713 1681 1746 1723 1724 1800 1760 1728 1672 1690 1657 1743 1646 1680 1689 1694 1681 1751 1741 1672 1728 1788 1767 1741 1700 1746 1703 1670 1737 1739 1670 1814 1725 1707 1694 1749 1703 1704 1770 1746 1665 1662 1749 1640 1670 1739 1635 1719 1783 1702 1627 1666 1695 1705 1665 1710 1701 1687 1740 1741 1705 1755 1677 1715 1733 1735 1777 1720 1847 1765 1701 1744 1697 1676 1728 1725 1718 1720 1736 1770 1726 1730 1746 1774 1635 1679 1691 1653 1732 1702 1660 1648 1731 1715 1719 1720 1773 1718 1772 1719 1739 1772 1724 1700 1737 1797 1738 1775 1782 1722 1773 1767 1751 1800 1695 1807 1861 1726 1747 1684 1776 1662 1720 1751 1713 1757 1708 1775 1758 1748 1726 1777 1661 1829 1719 1728 1788 1704 1670 1754 1742 1683 1745 1813 1764 1759 1698 1702 1784 1656 1684 1744 1733 1739 1730 1723 1693 1892 1681 1640 1704 1768 1778 1740 1757 1841 1836 1785 1681 1724 1719 1742 1729 1769 1777 1692 1773 1767 1674 1808 1708 1821 1784 1797 1811 1698 1736 1690 1695 1673 1706 1721 1715 1785 1788 1771 1745 1830 1737 1706 1727 1800 1804 1690 1770 1719 1792 1753 1782 1756 1796 1724 1758 1707 1782 1760 1769 1783 1813 1733 1773 1766 1740 1742 1805 1830 1855 1747 1816 1849 1843 1834 1802 1822 1842 1841 1750 1826 1828 1775 1808 1840 1871 1909 1869 1864 1879 1853 1851 1861 1737 1800 1799 1891 1786 1810 1846 1791 1819 1730 1903 1901 1755 1789 1773 1829 1812 1805 1761 1830 1779 1804 1772 1780 1787 1735 1779 1781 1874 1832 1835 1745 1814 1832 1798 1816 1807 1782 1785 1815 1778 1862 1852 1870 1842 1882 1836 1851 1764 1797 1847 1847 1848 1832 1880 1811 1788 1849 1824 1803 1795 1821 1766 1856 1854 1832 1777 1848 1847 1845 1749 1872 1792 1836 1764 1757 1861 1825 1760 1788 1854 1775 1778 1759 1851 1796 1763 1709 1832 1781 1750 1744 1820 1910 1721 1810 1746 1788 1856 1774 1718 1851 1759 1729 1782 1817 1715 1751 1707 1729 1718 1670 1770 1783 1690 1780 1790 1690 1761 1785 1758 1784 1699 1761 1825 1751 1805 1781 1733 1755 1791 1813 1742 1717 1735 1733 1782 1747 1738 1743 1779 1750 1818 1753 1718 1848 1745 1724 1770 1722 1698 1775 1801 1844 1816 1724 1750 1817 1736 1692 1713 1726 1735 1764 1742 1812 1801 1717 1786 1765 1721 1757 1793 1756 1763 1825 1807 1826 1744 1721 1723 1739 1661 1723 1743 1757 1785 1701 1796 1851 1728 1720 1772 1809 1734 1796 1773 1771 1767 1684 1749 1729 1772 1728 1814 1798 1742 1786 1735 1764 1753 1780 1789 1813 1831 1775 1695 1798 1734 1815 1694 1758 1791 1773 1785 1796 1753 1787 1769 1715 1704 1823 1776 1712 1766 1730 1812 1776 1768 1798 1792 1787 1816 1879 1824 1859 1877 1830 1843 1855 1813 1874 1842 1789 1791 1921 1855 1870 1900 1919 1933 1838 1960 1985 1964 1960 2052 2109 2092 2100 2119 2111 2180 2224 2190 2346 2337 2418 2404 2472 2467 2428 2476 2339 2381 2331 2375 2375 2263 2362 2293 2288 2307 2110 2226 2205 2119 2180 2147 2240 2264 2159 2198 2185 2228 2131 2151 2210 2125 2144 2125 2068 2121 2023 2043 2032 1970 2036 1947 1956 1876 1953 2001 1988 1881 1962 1887 1806 1841 1857 1834 1876 1865 1803 1858 1813 1809 1918 1837 1873 1823 1792 1837 1820 1845 1776 1757 1825 1783 1840 1718 1776 1824 1748 1822 1856 1782 1799 1781 1764 1833 1810 1814 1831 1772 1769 1789 1920 1825 1764 1797 1782 1738 1800 1720 1804 1746 1782 1700 1755 1735 1781 1829 1777 1761 1752 1815 1750 1703 1781 1713 1754 1788 1754 1747 1791 1753 1760 1838 1700 1783 1701 1737 1802 1726 1771 1726 1812 1738 1765 1711 1761 1808 1800 1770 1759 1793 1743 1729 1831 1755 1749 1749 1731 1775 1688 1760 1725 1796 1805 1711 1757 1795 1754 1679 1748 1772 1754 1773 1740 1744 1760 1648 1800 1787 1768 1803 1770 1797 1741 1776 1844 1747 1906 1874 1713 1808 1848 1718 1761 1808 1793 1781 1778 1838 1870 1801 1896 1841 1842 1912 1774 1821 1812 1806 1819 1772 1802 1726 1834 1862 1866 1716 1787 1746 1753 1765 1867 1762 1737 1868 1724 1763 1766 1735 1715 1799 1710 1738 1794 1766 1764 1775 1711 1814 1717 1740 1758 1706 1840 1778 1807 1843 1715 1780 1692 1686 1832 1729 1712 1720 1787 1691 1726 1752 1786 1717 1720 1741 1741 1747 1722 1822 1769 1700 1759 1777 1807 1792 1681 1698 1769 1739 1683 1745 1784 1697 1798 1752 1698 1741 1729 1759 1813 1674 1731 1726 1708 1664 1740 1767 1691 1728 1789 1761 1768 1783 1739 1771 1722 1779 1775 1744 1703 1773 1766 1712 1740 1714 1762 1852 1754 1813 1764 1719 1748 1735 1799 1664 1826 1782 1806 1746 1749 1734 1733 1789 1722 1749 1775 1693 1745 1762 1730 1809 1691 1783 1710 1669 1730 1724 1716 1775 1779 1620 1656 1762 1747 1788 1712 1745 1778 1703 1735 1741 1717 1755 1761 1762 1732 1819 1684 1777 1754 1728 1721 1793 1722 1795 1721 1793 1722 1700 1745 1773 1723 1739 1650 1735 1749 1763 1713 1766 1819 1828 1747 1775 1709 1735 1736 1715 1775 1673 1739 1723 1757 1821 1789 1768 1808 1784 1692 1680 1762 1762 1772 1743 1752 1779 1750 1730 1796 1741 1712 1696 1838 1759 1826 1779 1718 1711 1638 1747 1722 1788 1721 1729 1687 1679 1696 1619 1770 1718 1797 1742 1703 1736 1773 1738 1843 1661 1720 1751 1709 1689 1638 1783 1702 1811 1739 1770 1667 1715 1712 1684 1753 1679 1743 1734 1761 1765 1782 1740 1783 1709 1733 1759 1773 1733 1772 1692 1770 1693 1752 1758 1718 1684 1665 1728 1750 1722 1757 1724 1674 1805 1661 1724 1769 1729 1732 1730 1759 1752 1735 1746 1722 1732 1800 1810 1724 1735 1747 1661 1648 1755 1699 1773 1684 1754 1754 1711 1761 1745 1727 1716 1808 1712 1757 1765 1755 1730 1765 1749 1744 1798 1706 1697 1715 1725 1715 1652 1669 1828 1755 1810 1747 1727 1773 1662 1786 1804 1733 1767 1644 1695 1833 1669 1731 1773 1735 1755 1766 1773 1731 1740 1776 1750 1794 1687 1737 1734 1796 1701 1761 1670 1685 1762 1789 1767 1781 1687 1785 1784 1796 1744 1723 1790 1754 1726 1790 1782 1706 1780 1762 1759 1790 1791 1672 1714 1746 1728 1758 1792 1732 1731 1768 1809 1782 1753 1712 1768 1722 1765 1749 1752 1720 1806 1757 1741 1700 1728 1774 1769 1651 1848 1781 1725 1638 1799 1711 1761 1815 1789 1827 1728 1750 1826 1757 1818 1776 1743 1795 1740 1729 1792 1715 1850 1848 1889 1700 1751 1850 1787 1817 1805 1864 1802 1769 1803 1845 1895 1801 1805 1794 1807 1881 1844 1870 1850 1910 1886 1821 1789 1773 1813 1755 1787 1773 1818 1814 1839 1843 1810 1841 1808 1780 1795 1769 1851 1776 1769 1851 1755 1786 1739 1827 1767 1773 1758 1793 1776 1844 1786 1856 1772 1835 1815 1762 1813 1822 1702 1700 1827 1744 1829 1746 1802 1752 1751 1717 1810 1822 1766 1796 1745 1756 1830 1714 1759 1771 1741 1736 1787 1666 1743 1740 1783 1719 1753 1710 1817 1737 1784 1745 1807 1793 1713 1651 1774 1815 1685 1701 1804 1793 1742 1728 1723 1749 1739 1768 1693 1807 1751 1756 1751 1772 1855 1725 1784 1816 1646 1733 1732 1731 1801 1745 1834 1756 1792 1794 1696 1828 1753 1773 1745 1672 1677 1747 1751 1793 1784 1744 1651 1708 1697 1814 1793 1762 1707 1662 1722 1727 1698 1773 1740 1699 1767 1691 1745 1766 1746 1719 1686 1791 1697 1782 1738 1759 1721 1794 1795 1765 1807 1756 1779 1691 1714 1786 1761 1736 1740 1714 1709 1796 1732 1694 1722 1720 1757 1730 1723 1826 1733 1674 1804 1733 1795 1788 1774 1776 1763 1786 1694 1672 1775 1777 1770 1766 1817 1748 1751 1843 1761 1828 1726 1785 1672 1770 1772 1741 1737 1761 1780 1707 1749 1730 1726 1675 1771 1889 1760 1681 1790 1747 1791 1848 1740 1728 1711 1772 1774 1845 1794 1771 1788 1777 1749 1825 1751 1778 1774 1790 1840 1794 1861 1754 1831 1721 1851 1836 1782 1658 1770 1899 1804 1791 1740 1760 1829 1724 1809 1801 1839 1817 1856 1812 1832 1810 1798 1839 1898 1859 1937 1878 1886 1932 2013 2009 2075 2014 2050 2064 2044 2063 2035 2129 2080 2202 2185 2224 2241 2265 2201 2233 2235 2163 2177 2136 2220 2073 2144 2105 1940 2069 2159 2008 1982 2014 1996 2082 2009 2015 2022 2129 2068 2060 2071 2056 2098 2041 2059 2108 2022 2033 1989 2023 1950 1878 2016 1895 1879 1915 1926 1879 1886 1812 1929 1837 1821 1765 1954 1803 1827 1838 1885 1823 1848 1826 1847 1826 1841 1871 1765 1803 1813 1749 1833 1817 1801 1771 1787 1737 1835 1759 1728 1810 1811 1839 1750 1733 1758 1724 1829 1753 1782 1837 1850 1772 1789 1747 1838 1755 1762 1775 1720 1735 1800 1757 1724 1845 1795 1694 1760 1819 1900 1730 1783 1770 1839 1757 1687 1755 1825 1760 1810 1797 1833 1831 1775 1769 1791 1802 1805 1749 1701 1684 1796 1695 1641 1748 1701 1798 1775 1823 1802 1833 1713 1742 1781 1648 1780 1671 1758 1808 1713 1736 1751 1700 1820 1750 1739 1732 1778 1683 1715 1781 1726 1779 1784 1742 1713 1909 1704 1846 1835 1787 1711 1806 1845 1772 1774 1767 1741 1802 1835 1743 1855 1865 1846 1869 1800 1816 1754 1769 1772 1787 1680 1760 1743 1806 1783 1761 1734 1774 1768 1816 1801 1825 1759 1759 1705 1803 1770 1759 1744 1792 1811 1802 1787 1809 1792 1759 1677 1822 1756 1721 1822 1724 1756 1696 1796 1735 1688 1773 1798 1701 1788 1793 1739 1709 1797 1713 1694 1738 1752 1746 1719 1704 1812 1795 1830 1738 1754 1683 1787 1723 1765 1768 1742 1786 1660 1761 1725 1796 1769 1722 1792 1694 1753 1768 1788 1751 1739 1719 1722 1796 1776 1708 1734 1758 1759 1756 1707 1805 1733 1751 1723 1703 1728 1778 1739 1773 1801 1740 1771 1676 1777 1733 1686 1777 1766 1756 1714 1706 1781 1748 1777 1787 1705 1838 1781 1718 1846 1770 1760 1855 1748 1793 1855 1790 1772 1657 1740 1741 1749 1811 1741 1702 1810 1725 1736 1772 1716 1777 1731 1739 1763 1797 1835 1790 1782 1815 1769 1778 1775 1681 1756 1743 1760 1730 1806 1748 1773 1813 1783 1706 1799 1728 1702 1749 1665 1835 1744 1764 1786 1719 1792 1694 1779 1791 1756 1714 1640 1805 1733 1785 1691 1759 1717 1756 1784 1765 1735 1821 1761 1642 1759 1783 1775 1767 1668 1788 1739 1711 1816 1812 1755 1802 1743 1743 1775 1674 1724 1752 1778 1713 1770 1745 1795 1777 1717 1695 1795 1747 1711 1692 1767 1772 1727 1689 1788 1728 1702 1652 1753 1883 1750 1800 1738 1675 1743 1736 1722 1744 1761 1732 1839 1877 1660 1768 1775 1831 1801 1700 1712 1684 1765 1748 1806 1713 1768 1724 1742 1746 1742 1737 1756 1767 1757 1725 1770 1805 1703 1789 1740 1757 1658 1758 1722 1782 1770 1688 1771 1725 1680 1810 1751 1744 1725 1689 1839 1794 1695 1677 1736 1675 1766 1793 1779 1776 1732 1732 1798 1763 1769 1709 1711 1747 1755 1692 1852 1750 1682 1672 1733 1775 1686 1757 1803 1658 1708 1815 1732 1737 1714 1800 1771 1721 1759 1767 1767 1720 1735 1745 1795 1691 1755 1730 1804 1758 1829 1780 1697 1735 1776 1699 1688 1758 1796 1732 1806 1724 1751 1661 1756 1715 1636 1816 1830 1752 1749 1676 1797 1739 1799 1757 1745 1748 1760 1776 1726 1699 1712 1753 1765 1791 1828 1713 1794 1785 1737 1759 1818 1891 1762 1867 1794 1815 1720 1749 1813 1693 1683 1731 1775 1821 1815 1773 1723 1701 1750 1765 1725 1691 1719 1783 1757 1738 1752 1795 1813 1807 1712 1710 1796 1842 1770 1717 1820 1788 1744 1799 1847 1709 1740 1682 1800</counts>
			</dataPoints>
		</scan>
	</xrdMeasurement>
</xrdMeasurements>
