<?xml version="1.0"?>
<xrdMeasurements xmlns="http://www.xrdml.com/XRDMeasurement/2.3" xmlns:xsi="http://www.w3.org/2001/XMLSchema-instance" xsi:schemaLocation="http://www.xrdml.com/XRDMeasurement/2.3 http://www.xrdml.com/XRDMeasurement/2.3/XRDMeasurement.xsd" status="Completed" recordIdentifier="{8E508BBE-60FD-4904-A14C-910C4D76811C}">
	<comment>
		<entry/>
	</comment>
	<sample type="To be analyzed">
		<id>GPSS_Li1p6Co0p2Zr0p1Cu0p2Mn0p3Fe0p4Cl4_122625_694e531dae15af25ac374615</id>
		<name></name>
		<preparedBy></preparedBy>
	</sample>
	<xrdMeasurement measurementType="Scan" status="Completed" sampleMode="Reflection">
		<usedWavelength intended="K-Alpha 1">
			<kAlpha1 unit="Angstrom">1.5405980</kAlpha1>
			<kAlpha2 unit="Angstrom">1.5444260</kAlpha2>
			<kBeta unit="Angstrom">1.3922500</kBeta>
			<ratioKAlpha2KAlpha1>0.5000</ratioKAlpha2KAlpha1>
		</usedWavelength>
		<incidentBeamPath>
			<radius unit="mm">145.00</radius>
			<xRayTube id="1010048" name="Empyrean Cu LFF HR (9430 033 7310x)">
				<tension unit="kV">40.0</tension>
				<current unit="mA">15.0</current>
				<anodeMaterial>Cu</anodeMaterial>
				<focus type="Line">
					<length unit="mm">12.0</length>
					<width unit="mm">0.4</width>
					<takeOffAngle unit="deg">6.0</takeOffAngle>
				</focus>
			</xRayTube>
			<sollerSlit id="21010002" name="Soller slits 0.04 rad.">
				<opening unit="rad">0.0400</opening>
			</sollerSlit>
			<mask id="22031000" name="Fixed mask 13 mm">
				<width unit="mm">9.00</width>
			</mask>
			<divergenceSlit id="22120001" name="Divergence slit 1°" xsi:type="fixedDivergenceSlitType">
				<distanceToSample unit="mm">50.00</distanceToSample>
				<height unit="mm">1.52</height>
			</divergenceSlit>
		</incidentBeamPath>
		<sampleMovement xsi:type="spinningSampleMovementType">
			<spinnerRevolutionTime unit="seconds">1.0</spinnerRevolutionTime>
		</sampleMovement>
		<diffractedBeamPath>
			<radius unit="mm">145.00</radius>
			<antiScatterSlit id="22090040" name="AS slit 9 mm (PIXcel)" xsi:type="fixedAntiScatterSlitType">
				<height unit="mm">9.00</height>
			</antiScatterSlit>
			<sollerSlit id="21020003" name="Large Soller slits 0.04 rad.">
				<opening unit="rad">0.0400</opening>
			</sollerSlit>
			<filter id="20030001" name="Large beta-filter Nickel">
				<material>Ni</material>
				<thickness unit="mm">0.020</thickness>
			</filter>
			<detector id="7010019" name="PIXcel1D-Medipix3 detector" xsi:type="rtmsDetectorType">
				<phd unit="keV">
					<lowerLevel>4.02</lowerLevel>
					<upperLevel>11.27</upperLevel>
				</phd>
				<mode>Scanning</mode>
				<activeLength unit="deg">5.542</activeLength>
			</detector>
		</diffractedBeamPath>
		<scan appendNumber="0" mode="Continuous" scanAxis="Gonio" status="Completed">
			<header>
				<startTimeStamp>2025-12-27T14:14:45-08:00</startTimeStamp>
				<endTimeStamp>2025-12-27T14:22:53-08:00</endTimeStamp>
				<author>
					<name>AutomatedUser</name>
				</author>
				<source>
					<applicationSoftware version="1.7b (136)">PANalytical Aeris Instrument Suite</applicationSoftware>
					<instrumentControlSoftware version="3.2.00000000 20240306">AERIS</instrumentControlSoftware>
					<instrumentID>950485</instrumentID>
				</source>
			</header>
			<dataPoints>
				<positions axis="2Theta" unit="deg">
					<startPosition>10.00943322</startPosition>
					<endPosition>99.99442286</endPosition>
				</positions>
				<positions axis="Omega" unit="deg">
					<startPosition>5.00471661</startPosition>
					<endPosition>49.99721143</endPosition>
				</positions>
				<commonCountingTime unit="seconds">12.495</commonCountingTime>
				<counts unit="counts">3637 3496 3496 3507 3470 3427 3434 3448 3460 3452 3518 3548 3577 3513 3521 3659 3542 3476 3517 3627 3526 3525 3568 3504 3541 3496 3618 3496 3658 3535 3554 3642 3664 3604 3606 3547 3687 3637 3600 3710 3536 3630 3656 3637 3772 3622 3737 3689 3702 3758 3655 3577 3767 3702 3737 3751 3816 3826 3842 3767 3823 3748 3818 3795 3873 3798 3843 3775 3880 3830 3846 3975 3817 3829 3800 3851 3905 3854 3904 3899 3807 3915 3923 3990 3992 3774 3907 4030 3933 3994 3929 3961 3936 4000 3879 4043 4087 3989 4032 3989 4077 4105 4053 3927 3919 4050 4084 4123 4068 4013 4097 4100 4031 4010 4062 4072 4060 4107 4214 4018 3979 4093 4173 4140 4137 4149 4110 4176 4169 4026 4110 4164 4155 4188 4178 4131 4159 4190 4110 4083 4159 4088 3994 4199 4189 4156 4182 4078 4085 4215 4190 4270 4288 4231 4207 4283 4278 4214 4242 4198 4187 4250 4087 4228 4146 4157 4081 4162 4266 4225 4151 4123 4196 4234 4245 4190 4256 4229 4163 4230 4173 4235 4272 4091 4213 4166 4243 4136 4156 4269 4277 4191 4182 4256 4039 4161 4216 4227 4235 4053 4173 4108 4178 4113 3950 4270 4106 4243 4144 4063 4126 4097 4193 4130 3977 4093 4198 4039 3903 4076 4137 3988 4003 4086 4155 4107 4109 3958 3987 4090 4089 4086 4084 4072 4164 3941 4052 4022 3911 4098 3963 3975 3895 4037 4004 3998 3965 3932 4063 4023 4031 3961 3971 3854 3901 3994 4014 3980 3903 4004 3934 3985 4112 3957 3822 3980 3895 3944 3870 3846 3898 3902 3817 3871 3852 3837 3877 3844 3856 3892 3963 3873 3859 3804 3663 3870 3965 3906 3883 3924 3839 3921 3863 3703 3909 3936 3816 3845 3899 3889 3866 3905 3784 3877 3938 3793 3831 3887 3822 3850 3730 3953 3805 3800 3684 3874 3841 3911 3877 3853 3931 3847 3869 3843 3897 3869 3813 3850 3875 3862 3936 3778 3882 3977 3953 3872 3847 3944 3994 3810 3996 3827 3907 3874 3926 3920 3891 4001 3868 3925 4043 3926 4082 3963 3952 3962 3829 3949 3964 3908 4066 3918 3883 3998 3967 3846 4025 3989 3883 3888 3875 4011 4011 4107 3910 3884 3986 4022 3892 3953 3893 3957 4038 4008 4122 3992 3988 4024 3929 3907 4008 3986 3994 4087 4015 4005 3972 4084 4009 4087 4038 4051 3983 4119 4048 4043 4037 4069 4117 3928 4028 4017 3991 4117 4093 3954 4043 4058 4167 4046 4088 4108 4265 4193 4157 4200 4353 4351 4257 4181 4427 4363 4359 4399 4364 4360 4367 4458 4394 4376 4371 4410 4436 4359 4350 4417 4394 4474 4555 4481 4596 4573 4396 4470 4471 4471 4347 4467 4526 4372 4268 4298 4406 4293 4294 4274 4223 4321 4138 4067 4075 4056 4107 4032 4083 3995 3936 3941 3944 4009 4091 3953 3960 3867 3892 4086 3971 3945 3915 3935 3951 3825 3973 3929 3879 3869 3753 3888 3731 3829 3841 3828 3877 3830 3784 3747 3909 3802 3850 3763 3601 3632 3764 3871 3715 3823 3843 3780 3763 3693 3705 3657 3707 3632 3726 3624 3690 3663 3785 3668 3587 3656 3720 3629 3717 3570 3768 3645 3622 3644 3447 3414 3599 3637 3720 3485 3524 3492 3631 3654 3744 3688 3606 3577 3606 3569 3700 3656 3671 3536 3521 3467 3489 3607 3460 3438 3522 3461 3563 3560 3397 3544 3549 3488 3561 3578 3523 3518 3459 3390 3513 3458 3440 3403 3378 3529 3460 3441 3509 3476 3463 3523 3352 3497 3421 3407 3484 3393 3428 3431 3433 3486 3317 3371 3395 3495 3501 3335 3512 3445 3422 3419 3436 3479 3366 3408 3340 3319 3332 3385 3395 3358 3374 3430 3400 3400 3341 3380 3353 3312 3476 3330 3357 3449 3384 3341 3429 3352 3415 3359 3417 3366 3395 3257 3397 3269 3301 3297 3325 3414 3322 3304 3332 3369 3415 3387 3423 3241 3266 3350 3334 3393 3355 3347 3283 3427 3309 3324 3443 3361 3349 3400 3246 3315 3297 3403 3383 3259 3236 3343 3332 3298 3402 3374 3295 3374 3294 3300 3278 3354 3286 3342 3367 3269 3306 3201 3254 3279 3301 3206 3245 3268 3252 3345 3277 3189 3346 3272 3320 3317 3204 3223 3191 3403 3202 3184 3231 3253 3308 3393 3291 3294 3327 3400 3270 3360 3312 3311 3192 3302 3201 3104 3306 3230 3272 3317 3315 3207 3263 3323 3267 3209 3316 3186 3198 3241 3361 3157 3268 3192 3251 3186 3247 3236 3305 3392 3245 3262 3211 3279 3299 3295 3283 3252 3282 3282 3175 3132 3210 3193 3286 3233 3213 3172 3215 3225 3139 3272 3321 3128 3258 3251 3221 3226 3274 3213 3115 3167 3180 3246 3217 3123 3322 3342 3258 3158 3284 3203 3172 3176 3225 3139 3128 3222 3238 3261 3227 3227 3152 3256 3187 3079 3184 3174 3185 3154 3205 3191 3212 3104 3137 3126 3276 3218 3191 3138 3116 3201 3218 3233 3191 3178 3118 3144 3212 3277 3208 3177 3146 3154 3210 3273 3217 3161 3191 3200 3231 3216 3146 3227 3143 3276 3247 3089 3159 3169 3224 3212 3134 3159 3106 3054 3170 3163 3193 3199 3078 3089 3164 3093 3131 3063 3131 3193 3041 3045 3120 3207 3042 3024 3015 3077 3109 3188 3082 3154 3174 3168 3114 3146 3059 3084 3105 3102 3009 3098 3136 3154 3033 3047 3026 3061 3064 3115 3039 3163 3149 3223 2992 3064 3055 3083 3171 3120 2974 3123 3173 3069 3060 2994 3063 3086 3165 3061 3103 3065 3069 3173 3068 3062 3001 3106 3076 3051 3073 2904 3059 2952 3158 3086 3039 2980 3057 3115 2951 2989 3024 3091 3044 3111 2978 3016 3013 3112 2984 3090 2995 3019 3137 3127 3067 3116 3023 3030 2938 3073 3126 2985 2994 2903 3079 3173 3065 2963 3037 3022 3050 3030 3038 3081 3069 3028 3116 3073 3022 3072 3066 3140 3118 2984 3063 3132 2969 2989 3067 3115 2985 3067 3048 2961 3061 3103 2988 3008 2959 3034 2933 3105 2956 2923 2966 3033 3022 3053 3011 3025 3011 3034 2997 3034 3102 3090 3028 2982 2918 2948 3023 2997 3053 3035 3032 3057 3054 2953 3028 2954 3068 3036 3031 3102 3074 3113 3095 3083 3006 3019 2976 3046 3049 3086 3010 3067 3134 2969 3049 3046 3106 3140 2993 3151 2977 3077 3080 3068 3027 3055 3042 3111 3043 3098 2971 2927 3024 2936 3082 3066 3036 3001 3099 3036 3075 2964 3061 2955 2948 2978 3005 3037 3003 3073 3148 3034 3105 3050 3028 3084 3038 2979 3003 3006 3032 3095 2966 3068 3029 3075 3045 3009 3106 3033 2912 3025 3063 3061 3062 3021 3132 2975 2983 2970 3079 2952 2938 3055 3001 2955 2935 3074 3036 2974 2979 2957 2975 2881 2844 2918 2913 2885 3002 2966 3013 3012 2944 2967 2895 2899 2830 2912 2948 2887 2921 2939 2947 2901 2935 2903 2991 2866 2940 2929 2827 2876 2877 2843 2889 2955 2885 2880 2864 2863 2845 2801 2894 2820 2885 2809 2839 2806 2888 2812 2798 2838 2819 2705 2855 2885 2723 2787 2822 2850 2781 2728 2725 2742 2789 2867 2726 2811 2707 2718 2799 2659 2744 2738 2814 2725 2586 2672 2699 2711 2729 2686 2723 2722 2751 2675 2691 2774 2804 2584 2707 2572 2639 2675 2676 2623 2764 2710 2647 2665 2701 2670 2740 2647 2664 2614 2632 2666 2630 2633 2617 2613 2628 2584 2599 2553 2610 2599 2472 2624 2583 2522 2630 2550 2494 2537 2606 2615 2634 2567 2493 2416 2527 2506 2616 2602 2492 2425 2532 2546 2574 2511 2559 2528 2541 2617 2584 2552 2581 2550 2512 2500 2494 2529 2512 2522 2499 2583 2608 2543 2586 2647 2491 2586 2588 2619 2549 2549 2659 2608 2616 2594 2537 2610 2532 2681 2607 2578 2614 2643 2557 2542 2627 2641 2511 2602 2632 2546 2614 2526 2693 2634 2548 2585 2582 2532 2559 2545 2500 2530 2497 2438 2559 2491 2490 2602 2469 2446 2428 2465 2481 2469 2365 2484 2438 2493 2441 2389 2380 2416 2421 2401 2393 2364 2343 2427 2317 2411 2373 2406 2393 2429 2422 2379 2443 2379 2513 2386 2388 2428 2419 2395 2397 2401 2457 2405 2521 2309 2456 2410 2517 2371 2434 2416 2396 2413 2393 2439 2393 2391 2358 2321 2346 2386 2371 2421 2365 2340 2358 2377 2389 2429 2412 2376 2402 2460 2434 2409 2325 2400 2468 2483 2418 2437 2426 2379 2388 2398 2336 2494 2385 2463 2340 2389 2420 2324 2489 2397 2482 2470 2391 2428 2427 2451 2323 2383 2477 2379 2509 2453 2371 2420 2460 2428 2308 2437 2418 2432 2413 2434 2401 2406 2396 2463 2494 2480 2389 2469 2286 2466 2429 2458 2382 2465 2508 2558 2421 2464 2467 2468 2504 2376 2414 2432 2461 2388 2372 2470 2355 2417 2406 2347 2424 2459 2381 2423 2444 2465 2443 2393 2424 2415 2429 2455 2486 2339 2458 2380 2420 2359 2395 2375 2320 2416 2468 2372 2425 2349 2463 2438 2419 2391 2361 2406 2462 2501 2451 2322 2399 2282 2380 2288 2488 2460 2390 2434 2450 2307 2428 2349 2372 2340 2357 2432 2401 2353 2364 2287 2376 2308 2415 2404 2384 2236 2412 2257 2261 2328 2352 2339 2357 2313 2327 2380 2400 2434 2389 2444 2346 2328 2324 2370 2246 2274 2312 2300 2320 2364 2244 2231 2258 2342 2281 2293 2288 2251 2194 2182 2190 2267 2259 2262 2171 2297 2221 2219 2195 2282 2219 2195 2253 2260 2298 2201 2239 2315 2228 2247 2283 2224 2187 2173 2138 2210 2236 2211 2236 2155 2169 2164 2181 2258 2150 2155 2128 2131 2194 2150 2260 2155 2127 2182 2212 2130 2195 2171 2158 2123 2163 2082 2224 2095 2159 2132 2107 2109 2092 2171 2134 2129 2199 2111 2263 2122 2117 2116 2076 2151 2108 2159 2106 2047 2110 2173 2206 2084 2173 2114 2097 2128 2133 2168 2166 2180 2156 2103 2215 2070 2202 2145 2158 2145 2148 2207 2129 2136 2256 2213 2258 2240 2328 2307 2363 2407 2401 2462 2405 2470 2615 2582 2640 2733 2711 2659 2720 2767 2934 2817 2955 2955 2919 2920 2987 3024 2883 2962 2921 2993 3008 2981 2995 2881 3057 2886 2977 2892 2924 2834 2736 2758 2727 2686 2636 2636 2560 2505 2498 2439 2470 2325 2408 2238 2181 2332 2259 2234 2227 2135 2143 2071 2118 2064 1996 2080 2077 2017 2111 2009 2048 2054 2037 2009 2019 2021 2050 1977 1934 1967 2036 2110 1990 2079 2035 2066 2029 2115 2061 2083 2034 2057 2006 1992 2114 2019 1996 2054 2027 2001 1982 1957 1995 2026 2011 2013 2020 1981 2028 1902 2010 2032 2067 2116 2083 2076 2124 2154 2172 2124 2242 2311 2357 2252 2399 2355 2529 2525 2641 2680 2733 2657 2792 2821 2921 2888 3007 3024 2980 3015 2994 3071 3177 3221 3189 3192 3263 3194 3388 3256 3300 3219 3380 3235 3310 3301 3234 3118 3219 3084 3117 2999 3101 2937 2903 2819 2719 2734 2647 2742 2626 2665 2615 2658 2624 2592 2685 2656 2597 2539 2560 2539 2418 2408 2328 2258 2210 2268 2275 2212 2103 2086 2214 2118 2093 2132 2058 2077 2056 2104 2054 2019 1993 1891 2027 2022 1931 2005 2027 1916 1896 1966 1943 1939 1897 1866 2000 2009 1959 1933 1937 1882 1998 1955 1916 1914 1963 1932 1921 1900 1953 1844 1969 1925 1938 1901 1890 1918 1820 1913 1770 1932 1871 1888 1882 1928 1928 1872 1883 1907 1864 1927 1908 1913 1835 1914 1892 1781 1784 1880 1828 1887 1821 1892 1839 1815 1829 1926 1858 1750 1821 1888 1902 1879 1873 1858 1801 1867 1845 1811 1764 1866 1828 1797 1816 1842 1860 1827 1872 1728 1841 1878 1831 1787 1832 1826 1705 1788 1797 1799 1854 1853 1815 1871 1860 1809 1843 1782 1731 1725 1767 1867 1832 1758 1818 1797 1746 1832 1803 1784 1841 1837 1818 1752 1774 1865 1745 1820 1816 1799 1818 1716 1783 1771 1780 1765 1878 1765 1767 1829 1742 1704 1775 1753 1846 1845 1840 1795 1822 1758 1782 1754 1721 1790 1738 1786 1805 1811 1795 1813 1769 1740 1769 1847 1695 1739 1766 1715 1834 1719 1801 1692 1797 1754 1757 1818 1797 1717 1730 1758 1773 1722 1728 1738 1780 1875 1746 1739 1698 1710 1835 1862 1808 1739 1691 1786 1762 1798 1707 1801 1680 1755 1736 1809 1828 1795 1723 1772 1805 1760 1785 1743 1749 1828 1786 1804 1704 1755 1811 1781 1771 1813 1808 1747 1807 1842 1767 1749 1764 1835 1663 1777 1821 1790 1750 1733 1752 1716 1720 1672 1825 1821 1762 1770 1686 1748 1795 1804 1757 1749 1739 1786 1799 1735 1785 1772 1829 1837 1760 1744 1747 1733 1770 1772 1745 1742 1700 1778 1755 1770 1743 1784 1776 1787 1799 1784 1776 1807 1766 1845 1708 1777 1759 1734 1722 1799 1792 1653 1812 1758 1800 1740 1871 1741 1794 1729 1781 1801 1759 1677 1770 1717 1741 1818 1806 1717 1738 1775 1816 1732 1795 1756 1754 1784 1777 1840 1750 1785 1818 1734 1799 1817 1754 1782 1782 1727 1794 1788 1762 1807 1820 1797 1810 1758 1880 1861 1787 1835 1814 1807 1822 1854 1844 1885 1907 1861 1900 1966 1978 1973 2028 2002 2053 2144 2133 2279 2251 2434 2399 2606 2628 2840 2904 2940 3113 3214 3153 3339 3649 3630 3757 3904 3952 3923 4082 4068 4137 4162 4328 4325 4205 4458 4433 4419 4422 4558 4393 4359 4454 4412 4439 4519 4266 4212 3970 4102 3889 3883 3752 3842 3590 3467 3573 3260 3196 3206 3162 2998 2912 2880 2682 2584 2574 2444 2462 2344 2359 2312 2228 2216 2109 2142 2130 2028 2186 2031 2092 2026 1926 1981 1949 1948 1996 1967 1876 1909 1884 1879 1832 1880 1902 1839 1842 1835 1831 1825 1921 1926 1852 1907 1839 1866 1758 1860 1791 1866 1866 1879 1847 1861 1785 1841 1843 1867 1848 1807 1849 1845 1898 1764 1751 1858 1738 1782 1743 1748 1789 1791 1740 1793 1801 1774 1694 1747 1709 1713 1708 1781 1852 1700 1844 1808 1797 1813 1822 1771 1788 1729 1658 1740 1749 1687 1653 1736 1749 1723 1723 1713 1726 1673 1761 1705 1750 1731 1750 1792 1757 1617 1712 1780 1696 1707 1830 1715 1718 1725 1712 1726 1751 1704 1754 1733 1683 1694 1750 1720 1723 1723 1831 1692 1673 1777 1708 1706 1761 1718 1752 1719 1752 1703 1696 1714 1646 1712 1694 1723 1664 1761 1712 1737 1695 1690 1750 1733 1685 1639 1679 1740 1782 1739 1731 1734 1686 1786 1645 1681 1665 1674 1698 1651 1696 1599 1701 1654 1762 1655 1643 1763 1664 1772 1679 1688 1724 1719 1692 1644 1767 1637 1680 1742 1682 1686 1681 1772 1740 1664 1641 1680 1738 1661 1710 1707 1609 1725 1700 1744 1750 1754 1714 1681 1661 1645 1721 1705 1737 1687 1651 1751 1604 1685 1727 1626 1709 1697 1681 1713 1650 1698 1698 1688 1666 1733 1682 1736 1620 1635 1665 1635 1685 1687 1700 1703 1685 1660 1616 1714 1716 1692 1738 1681 1757 1705 1709 1715 1704 1660 1682 1706 1720 1690 1613 1669 1653 1660 1756 1657 1682 1723 1672 1716 1725 1710 1675 1659 1688 1645 1697 1661 1717 1763 1695 1640 1674 1688 1723 1698 1657 1637 1597 1630 1705 1694 1703 1667 1727 1670 1626 1704 1674 1737 1683 1720 1657 1711 1690 1682 1680 1638 1620 1698 1664 1624 1701 1573 1685 1667 1687 1686 1625 1640 1686 1644 1746 1610 1680 1668 1669 1667 1662 1620 1729 1674 1658 1764 1623 1754 1600 1686 1766 1699 1614 1671 1611 1619 1734 1635 1641 1704 1624 1612 1730 1619 1661 1760 1705 1746 1614 1689 1623 1651 1635 1661 1655 1697 1716 1698 1633 1628 1692 1597 1589 1664 1660 1640 1721 1668 1694 1681 1600 1701 1603 1708 1654 1609 1592 1644 1662 1592 1696 1625 1583 1618 1625 1666 1685 1726 1737 1724 1685 1767 1707 1719 1630 1694 1643 1596 1635 1658 1652 1644 1637 1665 1687 1619 1606 1664 1649 1635 1643 1685 1672 1657 1638 1614 1639 1590 1643 1699 1687 1702 1674 1515 1638 1632 1712 1610 1629 1672 1686 1715 1664 1540 1634 1693 1593 1676 1619 1682 1661 1689 1744 1622 1668 1666 1633 1574 1662 1658 1679 1594 1652 1635 1670 1651 1617 1627 1795 1706 1619 1641 1686 1655 1578 1630 1635 1607 1730 1571 1656 1601 1593 1592 1704 1623 1586 1645 1767 1749 1600 1672 1745 1642 1626 1618 1573 1642 1690 1585 1619 1658 1760 1720 1635 1613 1609 1594 1605 1756 1728 1654 1627 1598 1549 1654 1751 1628 1661 1701 1693 1596 1685 1670 1611 1724 1567 1607 1583 1620 1645 1671 1686 1625 1673 1633 1668 1633 1623 1629 1621 1681 1674 1641 1596 1574 1679 1611 1589 1652 1612 1667 1702 1672 1613 1616 1579 1678 1670 1669 1566 1682 1698 1695 1629 1659 1576 1720 1684 1623 1644 1628 1661 1624 1670 1673 1635 1624 1637 1647 1628 1667 1690 1724 1661 1716 1759 1575 1709 1657 1617 1621 1675 1679 1721 1590 1640 1589 1648 1670 1603 1706 1664 1608 1664 1638 1608 1744 1649 1635 1650 1626 1624 1679 1628 1561 1620 1656 1590 1585 1607 1596 1624 1643 1737 1675 1667 1670 1660 1576 1589 1560 1680 1588 1653 1595 1578 1641 1600 1644 1561 1642 1622 1655 1625 1596 1667 1635 1668 1637 1625 1643 1667 1722 1641 1718 1682 1630 1621 1618 1629 1637 1691 1684 1581 1565 1652 1590 1670 1651 1636 1629 1677 1681 1697 1645 1626 1642 1714 1673 1670 1570 1650 1594 1664 1616 1688 1604 1728 1593 1615 1708 1705 1645 1711 1670 1724 1728 1695 1644 1666 1609 1654 1716 1633 1687 1654 1653 1681 1656 1696 1698 1660 1677 1674 1705 1646 1664 1715 1708 1711 1749 1719 1622 1662 1734 1662 1722 1572 1714 1646 1750 1709 1600 1685 1658 1747 1668 1642 1659 1646 1643 1640 1691 1596 1601 1610 1674 1680 1699 1646 1770 1681 1661 1621 1671 1622 1627 1616 1682 1685 1713 1669 1698 1574 1646 1577 1618 1620 1635 1637 1673 1576 1646 1647 1649 1650 1604 1684 1616 1636 1647 1601 1656 1652 1595 1633 1684 1687 1600 1644 1665 1683 1607 1597 1655 1578 1618 1617 1640 1657 1632 1559 1582 1697 1595 1602 1582 1641 1588 1705 1577 1649 1617 1612 1657 1557 1657 1574 1602 1645 1612 1606 1619 1662 1581 1594 1619 1562 1582 1637 1659 1634 1578 1645 1639 1673 1614 1711 1590 1631 1662 1674 1557 1639 1641 1561 1658 1621 1626 1613 1623 1612 1673 1648 1699 1637 1654 1596 1710 1697 1671 1667 1590 1634 1631 1641 1642 1619 1671 1655 1596 1650 1702 1582 1676 1682 1655 1645 1582 1606 1662 1686 1630 1687 1615 1658 1603 1615 1649 1671 1651 1606 1650 1592 1661 1720 1598 1633 1640 1665 1668 1634 1681 1611 1605 1610 1666 1718 1619 1646 1699 1631 1756 1680 1710 1686 1682 1669 1665 1696 1628 1728 1608 1751 1613 1711 1675 1651 1669 1659 1663 1673 1627 1665 1733 1664 1784 1652 1677 1782 1797 1744 1794 1773 1826 1755 1821 1890 1833 1848 1888 1894 1968 1932 2026 1985 1975 2005 2047 2130 2084 2147 2158 2173 2255 2157 2150 2210 2224 2187 2288 2280 2117 2285 2290 2259 2246 2239 2052 2178 2119 2194 2170 2165 2083 2117 2116 1994 2057 2009 2088 1883 1858 1877 1951 1886 1758 1828 1920 1836 1790 1756 1795 1732 1717 1716 1718 1730 1693 1787 1711 1701 1671 1677 1743 1677 1716 1713 1595 1638 1675 1595 1718 1529 1607 1703 1659 1737 1715 1733 1632 1620 1640 1667 1592 1675 1607 1608 1639 1610 1683 1699 1581 1620 1639 1641 1597 1620 1660 1668 1606 1706 1630 1693 1693 1563 1628 1646 1616 1690 1676 1707 1636 1607 1652 1686 1634 1709 1613 1634 1657 1659 1647 1736 1632 1562 1586 1682 1685 1647 1681 1607 1633 1641 1613 1611 1640 1568 1589 1673 1655 1679 1630 1619 1671 1635 1671 1676 1631 1669 1665 1650 1648 1701 1590 1556 1716 1681 1639 1649 1564 1689 1623 1686 1611 1675 1647 1739 1626 1600 1617 1688 1628 1678 1579 1729 1635 1681 1569 1616 1688 1676 1644 1613 1682 1651 1697 1625 1616 1651 1673 1667 1631 1576 1684 1662 1632 1604 1628 1560 1583 1588 1669 1633 1702 1638 1603 1642 1705 1659 1668 1680 1595 1719 1569 1628 1595 1683 1720 1624 1665 1608 1691 1717 1601 1623 1640 1682 1634 1558 1664 1580 1646 1682 1614 1646 1604 1576 1690 1683 1642 1605 1616 1670 1612 1668 1644 1711 1657 1692 1605 1670 1674 1618 1674 1743 1689 1668 1511 1675 1609 1656 1615 1649 1660 1600 1604 1695 1650 1614 1655 1695 1683 1664 1674 1624 1577 1715 1682 1723 1611 1704 1627 1652 1686 1721 1620 1666 1728 1711 1640 1681 1653 1685 1681 1718 1689 1640 1633 1667 1671 1735 1657 1614 1705 1616 1637 1689 1680 1690 1662 1680 1586 1628 1653 1625 1685 1640 1631 1670 1668 1744 1711 1670 1701 1655 1659 1609 1732 1617 1640 1620 1632 1737 1698 1605 1664 1658 1683 1626 1621 1625 1685 1679 1738 1718 1683 1753 1683 1660 1620 1693 1737 1673 1724 1644 1681 1747 1780 1851 1707 1766 1790 1773 1707 1845 1841 1770 1768 1707 1795 1747 1786 1713 1846 1802 1919 1916 1959 1963 1972 2007 1975 2144 2111 2162 2323 2327 2425 2476 2492 2585 2805 2786 2895 2994 3122 3118 3208 3166 3325 3452 3468 3533 3488 3633 3765 3785 3735 3913 3844 3842 4075 4125 4181 4093 4123 4041 3926 3967 3961 4027 3916 3937 3710 3834 3721 3610 3567 3518 3385 3350 3198 3155 3106 2928 2973 2836 2769 2667 2715 2576 2470 2360 2447 2413 2297 2459 2178 2279 2159 2133 2124 2119 2155 2076 2042 1986 2024 1941 2078 1987 1964 1917 2000 1856 1896 1939 1956 1825 1900 1908 1815 1926 1882 1857 1847 1870 1795 1805 1829 1789 1842 1775 1818 1791 1842 1685 1735 1814 1748 1798 1731 1787 1779 1793 1733 1766 1802 1761 1826 1694 1798 1738 1729 1728 1747 1768 1856 1749 1713 1697 1703 1802 1806 1784 1744 1804 1747 1777 1818 1759 1721 1667 1819 1840 1682 1686 1744 1679 1656 1851 1701 1663 1696 1746 1798 1734 1662 1675 1689 1743 1796 1721 1769 1658 1727 1664 1571 1593 1701 1709 1735 1672 1644 1636 1665 1705 1655 1652 1616 1750 1712 1646 1710 1651 1731 1655 1701 1631 1719 1649 1658 1706 1703 1687 1705 1692 1626 1647 1687 1686 1649 1666 1638 1650 1631 1661 1561 1684 1722 1733 1651 1596 1628 1715 1600 1583 1693 1721 1698 1614 1702 1586 1670 1609 1672 1634 1744 1689 1666 1694 1652 1674 1660 1668 1648 1713 1698 1708 1708 1717 1707 1749 1797 1741 1746 1776 1772 1824 1898 1799 1815 1749 1756 1790 1760 1764 1782 1795 1780 1716 1728 1771 1716 1775 1825 1793 1761 1721 1773 1766 1749 1691 1728 1723 1702 1727 1719 1660 1712 1756 1704 1685 1785 1624 1702 1663 1660 1664 1686 1638 1633 1711 1612 1637 1699 1599 1639 1720 1650 1645 1648 1575 1602 1672 1577 1663 1654 1726 1650 1689 1697 1726 1676 1697 1632 1620 1616 1683 1616 1623 1667 1634 1652 1578 1650 1644 1699 1681 1634 1670 1680 1697 1615 1594 1645 1672 1663 1616 1677 1571 1622 1625 1662 1724 1601 1631 1777 1662 1601 1677 1674 1601 1638 1588 1734 1624 1609 1644 1734 1708 1624 1685 1629 1620 1608 1662 1629 1667 1658 1654 1591 1639 1624 1672 1645 1675 1543 1616 1663 1585 1658 1583 1673 1659 1624 1624 1652 1678 1654 1622 1667 1674 1569 1707 1612 1578 1619 1638 1594 1661 1588 1682 1706 1607 1638 1567 1568 1644 1635 1629 1671 1589 1654 1570 1677 1646 1678 1700 1631 1618 1636 1583 1667 1663 1554 1705 1584 1587 1588 1682 1583 1652 1627 1580 1653 1636 1644 1595 1578 1669 1658 1574 1757 1606 1578 1673 1591 1576 1691 1604 1646 1519 1635 1663 1572 1561 1625 1567 1658 1604 1578 1664 1630 1689 1588 1659 1593 1654 1633 1563 1554 1666 1636 1710 1640 1571 1599 1547 1602 1648 1652 1638 1660 1634 1609 1652 1603 1637 1585 1691 1663 1617 1735 1631 1678 1683 1617 1641 1633 1620 1631 1644 1562 1710 1762 1591 1673 1662 1630 1650 1618 1592 1625 1650 1587 1698 1639 1654 1701 1693 1623 1647 1586 1631 1646 1703 1651 1647 1618 1653 1634 1634 1725 1643 1626 1600 1654 1615 1642 1628 1590 1545 1589 1606 1560 1620 1598 1658 1631 1542 1531 1614 1718 1589 1628 1575 1672 1600 1640 1645 1698 1536 1694 1592 1640 1594 1630 1600 1617 1616 1659 1618 1604 1674 1574 1647 1610 1642 1648 1712 1660 1590 1645 1538 1577 1628 1631 1598 1581 1671 1568 1612 1606 1595 1640 1668 1717 1626 1562 1576 1631 1620 1750 1639 1707 1613 1627 1642 1607 1635 1717 1642 1673 1737 1660 1580 1661 1578 1589 1549 1607 1633 1580 1623 1648 1637 1589 1576 1533 1683 1597 1600 1613 1640 1622 1613 1691 1615 1613 1633 1665 1617 1627 1625 1623 1618 1691 1622 1576 1623 1605 1609 1586 1618 1653 1562 1619 1616 1629 1623 1600 1634 1601 1607 1645 1622 1629 1619 1658 1642 1645 1630 1624 1663 1534 1668 1564 1612 1557 1666 1606 1576 1579 1655 1577 1667 1587 1720 1613 1550 1610 1601 1590 1636 1655 1577 1641 1625 1615 1609 1671 1527 1694 1602 1665 1582 1584 1613 1651 1604 1611 1594 1663 1622 1649 1613 1630 1630 1696 1600 1625 1645 1534 1648 1567 1664 1594 1605 1638 1614 1645 1603 1666 1617 1610 1684 1572 1662 1548 1654 1597 1663 1652 1637 1681 1638 1628 1571 1655 1598 1625 1658 1528 1604 1609 1647 1619 1653 1688 1549 1621 1610 1524 1619 1610 1644 1659 1606 1585 1622 1644 1586 1605 1638 1539 1585 1653 1610 1666 1641 1535 1635 1544 1563 1559 1632 1692 1749 1575 1680 1696 1599 1634 1621 1687 1647 1702 1639 1720 1617 1714 1667 1648 1629 1629 1697 1652 1730 1655 1746 1732 1684 1708 1673 1768 1748 1781 1640 1770 1769 1712 1703 1634 1722 1730 1762 1655 1697 1754 1751 1731 1706 1701 1744 1805 1682 1742 1649 1746 1679 1668 1754 1691 1718 1779 1726 1703 1724 1710 1708 1710 1704 1663 1621 1698 1634 1663 1713 1695 1656 1763 1639 1803 1776 1716 1761 1834 1771 1846 1731 1739 1767 1790 1853 1859 1887 1850 1898 1954 1863 1839 1881 1739 1812 1865 1853 1882 1941 1872 1906 1872 1916 1899 1928 1892 1937 1901 1949 1919 1823 1821 1872 1880 1787 1808 1810 1836 1965 1856 1809 1811 1764 1740 1770 1836 1794 1773 1753 1741 1740 1676 1779 1705 1747 1664 1669 1701 1756 1729 1670 1742 1710 1716 1714 1785 1718 1739 1735 1689 1749 1752 1791 1770 1754 1735 1753 1756 1786 1751 1783 1748 1776 1723 1774 1774 1721 1675 1751 1727 1817 1734 1760 1744 1685 1672 1804 1764 1735 1698 1692 1683 1646 1686 1600 1716 1676 1643 1682 1694 1596 1648 1634 1676 1698 1698 1609 1678 1689 1631 1674 1672 1637 1685 1660 1637 1634 1685 1671 1705 1755 1619 1699 1677 1656 1695 1635 1637 1669 1673 1628 1679 1693 1635 1599 1647 1646 1651 1612 1625 1666 1658 1688 1596 1672 1641 1662 1620 1552 1713 1584 1510 1678 1635 1655 1656 1592 1610 1616 1703 1612 1712 1631 1665 1640 1615 1621 1577 1605 1699 1601 1661 1622 1616 1654 1650 1617 1662 1645 1660 1672 1607 1703 1696 1633 1679 1646 1574 1651 1626 1556 1614 1607 1674 1737 1711 1588 1561 1645 1657 1574 1601 1657 1601 1623 1707 1626 1605 1651 1627 1663 1720 1634 1618 1670 1562 1644 1682 1585 1610 1603 1620 1683 1667 1605 1631 1658 1655 1646 1614 1718 1573 1633 1708 1738 1707 1700 1674 1633 1693 1689 1717 1670 1718 1706 1723 1747 1783 1787 1825 1835 1812 1894 1816 1776 1836 1839 1861 1889 1812 1876 1940 1989 2022 1940 2027 1992 2100 2021 2025 1999 2073 2072 1964 2027 2129 2158 2134 2076 2006 2149 2118 2171 2151 2142 2116 2054 2045 2107 1985 2104 2015 1999 1989 2005 1990 1871 1931 1861 1862 1937 1893 1884 1847 1859 1882 1817 1752 1785 1846 1828 1800 1791 1805 1754 1785 1810 1776 1785 1697 1734 1756 1731 1657 1791 1623 1685 1619 1683 1708 1747 1699 1732 1680 1716 1677 1601 1729 1636 1689 1630 1681 1718 1716 1691 1623 1724 1635 1723 1659 1740 1667 1642 1658 1668 1645 1645 1673 1677 1673 1590 1657 1668 1594 1577 1658 1606 1618 1633 1675 1656 1646 1583 1638 1686 1594 1685 1612 1621 1623 1591 1608 1724 1621 1662 1641 1663 1612 1593 1657 1585 1569 1661 1592 1645 1634 1591 1634 1593 1623 1660 1664 1623 1602 1691 1570 1685 1623 1703 1676 1659 1657 1577 1694 1649 1692 1627 1595 1666 1612 1660 1554 1652 1622 1686 1661 1627 1629 1631 1687 1729 1665 1704 1687 1725 1598 1600 1619 1627 1678 1664 1591 1646 1683 1710 1697 1605 1641 1740 1726 1617 1618 1721 1707 1766 1694 1720 1686 1716 1738 1685 1668 1723 1815 1687 1762 1782 1737 1721 1697 1696 1751 1781 1809 1814 1814 1756 1719 1712 1678 1755 1734 1680 1726 1755 1677 1691 1627 1598 1626 1762 1673 1663 1696 1648 1695 1653 1696 1624 1691 1588 1676 1629 1725 1676 1676 1622 1716 1684 1660 1682 1658 1669 1612 1689 1679 1605 1588 1664 1594 1592 1734 1549 1699 1659 1601 1692 1643 1550 1720 1589 1656 1520 1648 1681 1548 1666 1705 1582 1562 1662 1644 1611 1542 1725 1651 1626 1679 1634 1617 1662 1571 1577 1730 1603 1643 1607 1601 1633 1680 1680 1651 1694 1658 1595 1621 1641 1567 1664 1666 1557 1669 1587 1573 1634 1579 1684 1649 1671 1496 1582 1589 1609 1583 1579 1620 1648 1602 1603 1733 1612 1664 1631 1617 1650 1607 1574 1668 1626 1554 1656 1651 1636 1617 1543 1584 1577 1586 1542 1610 1646 1577 1687 1674 1593 1608 1593 1640 1590 1602 1658 1602 1530 1630 1572 1697 1597 1598 1659 1621 1674 1644 1599 1562 1608 1642 1639 1543 1581 1663 1607 1596 1589 1592 1681 1586 1639 1670 1609 1598 1614 1625 1582 1620 1631 1500 1628 1629 1551 1603 1606 1625 1561 1562 1677 1631 1611 1634 1651 1669 1654 1591 1671 1674 1650 1654 1589 1619 1605 1696 1643 1687 1697 1560 1673 1627 1568 1588 1576 1610 1603 1632 1591 1602 1593 1603 1642 1617 1622 1598 1596 1505 1609 1627 1691 1619 1653 1636 1656 1644 1669 1615 1613 1571 1601 1599 1638 1630 1588 1610 1569 1618 1666 1590 1621 1604 1681 1560 1609 1658 1594 1611 1492 1600 1622 1591 1664 1635 1599 1640 1576 1590 1613 1688 1666 1629 1551 1721 1633 1639 1667 1607 1597 1620 1610 1625 1553 1661 1608 1655 1711 1674 1641 1610 1529 1632 1593 1645 1666 1590 1650 1606 1544 1632 1633 1624 1598 1601 1595 1673 1594 1564 1593 1611 1643 1638 1603 1677 1594 1659 1710 1574 1700 1702 1632 1639 1639 1589 1650 1569 1620 1655 1669 1633 1645 1647 1575 1628 1642 1595 1649 1599 1630 1641 1642 1631 1612 1588 1658 1608 1680 1616 1636 1658 1594 1641 1674 1660 1609 1672 1631 1601 1578 1623 1602 1670 1635 1688 1578 1647 1598 1686 1607 1657 1607 1587 1623 1540 1639 1627 1644 1575 1646 1649 1639 1625 1653 1690 1567 1679 1594 1640 1709 1682 1570 1639 1583 1577 1606 1585 1574 1631 1631 1622 1612 1633 1670 1627 1599 1631 1589 1586 1628 1622 1673 1543 1655 1592 1634 1623 1681 1575 1617 1726 1695 1658 1607 1624 1646 1620 1639 1697 1497 1637 1646 1568 1649 1647 1599 1594 1688 1582 1581 1598 1544 1640 1527 1635 1682 1675 1560 1633 1600 1681 1639 1615 1644 1534 1582 1659 1637 1622 1600 1577 1616 1578 1619 1575 1589 1639 1698 1595 1587 1620 1654 1649 1631 1636 1654 1665 1602 1692 1689 1622 1649 1567 1653 1646 1701 1688 1775 1691 1660 1633 1708 1650 1798 1685 1759 1707 1759 1632 1745 1797 1774 1745 1746 1739 1761 1793 1814 1709 1751 1660 1698 1739 1749 1773 1702 1792 1756 1800 1711 1739 1718 1655 1713 1713 1638 1735 1764 1703 1736 1787 1670 1717 1728 1676 1688 1683 1732 1660 1571 1568 1670 1627 1670 1655 1641 1599 1593 1676 1644 1690 1598 1676 1640 1748 1663 1653 1618 1617 1681 1686 1535 1589 1548 1591 1676 1554 1602 1648 1698 1591 1649 1635 1501 1589 1620 1627 1611 1634 1636 1660 1669 1645 1644 1671 1597 1654 1634 1594 1639 1581 1656 1600 1629 1608 1511 1629 1632 1626 1592 1523 1527 1624 1579 1578 1621 1620 1619 1628 1701 1557 1584 1633 1634 1618 1633 1688 1626 1620 1656 1681 1601 1659 1697 1656 1612 1631 1669 1648 1728 1604 1623 1601 1588 1570 1659 1619 1616 1609 1591 1673 1638 1645 1557 1698 1597 1581 1683 1607 1607 1640 1533 1665 1643 1603 1593 1678 1584 1631 1629 1561 1583 1634 1655 1634 1538 1634 1626 1559 1585 1659 1652 1575 1690 1621 1629 1634 1626 1669 1650 1615 1636 1598 1639 1577 1638 1601 1606 1659 1699 1694 1578 1564 1634 1613 1667 1625 1589 1579 1535 1640 1606 1669 1613 1625 1616 1601 1657 1701 1608 1636 1596 1572 1635 1600 1626 1634 1649 1634 1606 1623 1601 1651 1692 1627 1609 1636 1664 1695 1639 1618 1579 1651 1607 1653 1617 1620 1635 1640 1600 1710 1637 1579 1595 1660 1612 1636 1593 1631 1662 1677 1604 1648 1660 1562 1738 1660 1718 1633 1657 1632 1731 1648 1599 1611 1646 1666 1614 1651 1619 1685 1688 1629 1669 1689 1726 1682 1726 1730 1674 1635 1700 1626 1650 1698 1781 1680 1710 1691 1705 1784 1689 1737 1742 1783 1715 1767 1724 1796 1807 1731 1858 1830 1827 1669 1800 1757 1930 1881 1809 1787 1897 1836 1827 1790 1744 1930 1854 1910 1847 1811 1774 1770 1787 1841 1815 1769 1780 1848 1738 1856 1664 1829 1859 1755 1732 1776 1735 1753 1708 1776 1732 1723 1831 1701 1677 1678 1683 1668 1665 1731 1691 1762 1711 1723 1663 1735 1700 1673 1669 1719 1687 1734 1605 1610 1648 1656 1656 1681 1660 1614 1675 1690 1638 1647 1651 1617 1679 1632 1711 1630 1599 1681 1645 1700 1642 1715 1608 1748 1658 1702 1706 1624 1557 1666 1644 1632 1640 1617 1670 1676 1682 1657 1672 1644 1654 1693 1665 1620 1654 1682 1647 1682 1662 1597 1662 1724 1585 1614 1665 1693 1594 1651 1582 1608 1647 1540 1644 1706 1693 1674 1628 1701 1565 1664 1690 1619 1647 1637 1647 1600 1642 1572 1669 1610 1547 1574 1566 1614 1671 1671 1604 1575 1722 1685 1594 1620 1590 1652 1676 1601 1589 1629 1667 1584 1555 1615 1658 1666 1631 1689 1716 1618 1628 1648 1699 1672 1604 1664 1677 1582 1662 1656 1584 1657 1653 1623 1581 1663 1623 1697 1559 1666 1625 1623 1585 1635 1649 1610 1679 1647 1657 1618 1690 1601 1569 1610 1608 1646 1689 1646 1625 1688 1691 1660 1631 1622 1678 1674 1637 1630 1646 1604 1708 1704 1654 1619 1632 1689 1682 1608 1647 1621 1647 1729 1690 1580 1585 1643 1636 1720 1550 1670 1591 1665 1607 1634 1680 1524 1667 1677 1557 1629 1629 1649 1686 1523 1632 1644 1605 1607 1699 1627 1674 1662 1697 1637 1683 1637 1664 1636 1556 1621 1656 1689 1585 1711 1623 1666 1592 1686 1648 1623 1633 1660 1576 1578 1622 1614 1687 1642 1621 1633 1548 1574 1712 1571 1610 1662 1655 1629 1684 1633 1686 1689 1625 1699 1622 1629 1681 1603 1668 1746 1639 1656 1661 1627 1651 1699 1619 1610 1652 1661 1606 1658 1663 1547 1608 1597 1610 1661 1695 1673 1582 1653 1616 1653 1694 1702 1589 1637 1588 1635 1690 1662 1624 1694 1566 1663 1656 1657 1634 1660 1637 1607 1588 1642 1619 1607 1696 1631 1707 1601 1569 1572 1578 1620 1683 1646 1629 1662 1671 1605 1626 1724 1620 1632 1622 1617 1637 1599 1591 1600 1618 1601 1681 1580 1704 1594 1626 1639 1637 1632 1599 1645 1647 1658 1695 1687 1622 1644 1639 1686 1650 1738 1656 1614 1615 1573 1694 1647 1693 1592 1600 1622 1664 1599 1637 1600 1622 1652 1614 1644 1603 1639 1612 1632 1641 1619 1690 1560 1604 1631 1607 1610 1633 1664 1618 1543 1554 1658 1661 1566 1629 1663 1624 1649 1614 1685 1606 1653 1723 1672 1631 1662 1697 1627 1599 1605 1643 1669 1715 1614 1651 1652 1695 1631 1637 1639 1626 1683 1660 1608 1674 1598 1670 1661 1683 1651 1615 1702 1669 1648 1604 1566 1695 1567 1683 1657 1607 1604 1695 1612 1743 1764 1602 1623 1653 1636 1604 1651 1693 1648 1638 1601 1667 1630 1646 1663 1590 1669 1571 1635 1628 1612 1653 1676 1628 1564 1638 1684 1680 1645 1657 1630 1677 1626 1602 1613 1661 1714 1610 1642 1645 1682 1636 1622 1600 1670 1690 1655 1715 1642 1647 1611 1664 1620 1722 1651 1666 1671 1603 1586 1636 1649 1650 1659 1632 1663 1571 1678 1632 1697 1676 1627 1617 1624 1557 1673 1597 1647 1609 1605 1592 1644 1592 1720 1609 1667 1659 1717 1624 1535 1641 1585 1627 1686 1672 1677 1656 1639 1662 1662 1612 1690 1665 1594 1642 1680 1705 1675 1546 1648 1703 1632 1694 1671 1678 1608 1697 1645 1686 1612 1628 1680 1693 1701 1722 1615 1686 1642 1656 1686 1694 1642 1697 1689 1671 1666 1676 1639 1619 1742 1633 1658 1719 1682 1702 1658 1647 1674 1665 1714 1662 1632 1715 1723 1726 1733 1693 1676 1790 1670 1721 1734 1613 1773 1702 1727 1746 1722 1651 1649 1735 1696 1745 1767 1697 1697 1709 1748 1635 1748 1707 1751 1638 1733 1740 1770 1699 1647 1752 1783 1726 1718 1723 1707 1714 1687 1724 1683 1676 1742 1717 1648 1693 1743 1762 1753 1738 1787 1740 1818 1648 1754 1736 1690 1695 1753 1688 1784 1735 1679 1734 1704 1754 1760 1771 1816 1734 1694 1689 1751 1798 1714 1728 1802 1707 1784 1677 1729 1629 1707 1684 1716 1677 1685 1756 1775 1736 1726 1725 1674 1654 1673 1695 1703 1667 1727 1697 1756 1721 1694 1741 1652 1667 1789 1626 1700 1714 1617 1702 1699 1678 1752 1731 1751 1688 1695 1663 1711 1708 1627 1695 1652 1670 1628 1675 1735 1679 1742 1680 1682 1686 1718 1615 1644 1641 1718 1700 1703 1720 1726 1708 1667 1634 1678 1654 1658 1678 1658 1631 1663 1678 1674 1750 1740 1680 1733 1743 1729 1701 1631 1745 1728 1782 1668 1690 1712 1613 1701 1764 1734 1752 1728 1694 1752 1661 1761 1678 1683 1744 1681 1703 1688 1696 1658 1678 1650 1678 1736 1590 1662 1755 1674 1666 1667 1628 1753 1644 1644 1737 1742 1663 1612 1697 1679 1669 1654 1692 1717 1672 1647 1724 1626 1625 1784 1716 1677 1712 1734 1680 1635 1707 1691 1712 1623 1688 1750 1740 1709 1646 1753 1752 1664 1697 1722 1707 1664 1747 1704 1692 1747 1698 1671 1669 1730 1726 1742 1745 1722 1694 1748 1759 1703 1722 1679 1773 1725 1749 1774 1712 1722 1752 1761 1677 1655 1753 1725 1791 1720 1777 1735 1787 1787 1760 1808 1759 1833 1823 1833 1858 1745 1804 1850 1842 1931 1797 1846 2004 1930 1895 1916 1916 2000 1946 2055 1943 1850 2002 1930 1953 1984 2018 1946 1994 2013 1989 1975 2024 1972 2048 2063 2065 2054 1969 2005 2063 2126 2044 2033 2020 2071 2036 1964 1960 1997 1950 1923 1955 1984 1956 1948 1873 1964 2009 1952 1945 1915 1860 1832 1890 1878 1825 1859 1861 1890 1864 1887 1926 1793 1905 1838 1855 1730 1766 1776 1790 1732 1759 1793 1831 1735 1855 1697 1693 1796 1736 1803 1722 1770 1742 1765 1695 1800 1758 1746 1715 1731 1832 1777 1736 1717 1690 1663 1710 1795 1788 1729 1803 1709 1783 1745 1688 1702 1775 1711 1671 1789 1672 1753 1713 1756 1766 1750 1786 1680 1705 1729 1617 1686 1779 1756 1739 1665 1677 1782 1696 1705 1677 1693 1673 1781 1678 1694 1703 1698 1809 1676 1751 1615 1711 1694 1679 1651 1701 1701 1705 1742 1698 1734 1700 1727 1630 1708 1669 1737 1679 1700 1698 1693 1754 1639 1671 1632 1664 1621 1738 1639 1719 1608 1749 1682 1796 1700 1679 1669 1757 1711 1717 1671 1713 1714 1672 1694 1711 1677 1661 1661 1692 1659 1754 1688 1797 1690 1726 1727 1758 1672 1679 1686 1747 1674 1700 1688 1683 1837 1666 1762 1709 1713 1703 1728 1743 1746 1748 1672 1771 1714 1669 1604 1660 1683 1760 1708 1676 1721 1616 1687 1717 1695 1604 1754 1672 1726 1607 1751 1711 1660 1692 1674 1609 1689 1696 1728 1724 1689 1677 1657 1737 1751 1669 1643 1679 1683 1616 1703 1700 1645 1750 1618 1691 1733 1693 1626 1739 1733 1679 1695 1678 1651 1723 1653 1624 1644 1738 1653 1653 1656 1695 1777 1627 1729 1598 1661 1775 1683 1687 1668 1674 1703 1674 1658 1659 1655 1721 1734 1675 1627 1666 1661 1649 1650 1657 1666 1694 1675 1585 1706 1658 1646 1681 1647 1598 1605 1663 1675 1733 1702 1683 1654 1669 1602 1736 1640 1638 1727 1741 1661 1727 1695 1597 1627 1625 1641 1737 1639 1720 1655 1710 1662 1652 1635 1576 1600 1663 1669 1706 1705 1665 1657 1650 1609 1694 1674 1658 1688 1622 1715 1622 1651 1742 1790 1675 1682 1672 1680 1625 1628 1658 1595 1652 1706 1623 1649 1627 1666 1635 1681 1676 1782 1620 1689 1694 1680 1646 1694 1614 1707 1726 1732 1688 1728 1642 1620 1716 1579 1708 1675 1679 1718 1639 1739 1672 1726 1698 1644 1674 1665 1742 1743 1598 1691 1675 1669 1678 1713 1708 1710 1601 1661 1649 1682 1674 1675 1719 1618 1666 1613 1726 1676 1652 1634 1667 1646 1670 1695 1677 1670 1706 1721 1651 1656 1686 1703 1684 1701 1723 1646 1641 1662 1689 1634 1638 1707 1731 1668 1676 1628 1680 1699 1622 1706 1712 1679 1683 1620 1678 1690 1671 1672 1552 1664 1652 1729 1646 1755 1668 1683 1603 1670 1635 1578 1700 1659 1726 1691 1690 1684 1751 1650 1678 1683 1667 1677 1696 1594 1787 1673 1696 1610 1654 1633 1663 1641 1696 1627 1738 1705 1669 1661 1718 1680 1679 1603 1705 1752 1670 1699 1687 1734 1682 1636 1733 1705 1609 1644 1644 1620 1677 1650 1692 1663 1688 1646 1695 1678 1645 1685 1633 1640 1662 1664 1666 1741 1703 1638 1723 1707 1663 1729 1749 1659 1764 1669 1723 1685 1722 1683 1669 1624 1697 1706 1669 1703 1700 1719 1746 1662 1654 1635 1688 1642 1700 1684 1761 1745 1737 1649 1641 1675 1615 1614 1737 1582 1756 1677 1680 1655 1701 1717 1691 1667 1690 1696 1696 1697 1659 1612 1699 1660 1677 1726 1720 1724 1731 1693 1730 1692 1695 1640 1624 1747 1715 1738 1696 1726 1751 1668 1700 1700 1671 1653 1643 1675 1695 1627 1790 1703 1753 1725 1674 1656 1777 1704 1770 1717 1752 1754 1680 1691 1732 1751 1737 1746 1685 1701 1756 1748 1767 1729 1716 1742 1798 1739 1758 1726 1707 1830 1753 1734 1800 1711 1719 1731 1826 1790 1738 1743 1697 1783 1670 1660 1746 1812 1759 1711 1762 1739 1775 1803 1710 1787 1750 1642 1679 1782 1748 1692 1704 1756 1743 1680 1753 1713 1745 1766 1763 1748 1663 1720 1745 1677 1764 1657 1721 1691 1616 1670 1684 1647 1770 1766 1666 1713 1717 1629 1667 1708 1703 1704 1677 1758 1712 1645 1694 1727 1712 1734 1754 1798 1622 1606 1659 1657 1686 1678 1671 1692 1619 1650 1744 1632 1718 1669 1732 1715 1720 1689 1681 1740 1688 1746 1722 1711 1611 1731 1658 1682 1712 1647 1685 1705 1730 1729 1667 1658 1706 1661 1675 1688 1688 1772 1673 1736 1584 1795 1631 1664 1679 1614 1709 1688 1625 1696 1747 1656 1720 1758 1664 1673 1725 1668 1716 1660 1741 1641 1690 1725 1714 1644 1684 1690 1670 1750 1691 1741 1672 1646 1697 1624 1683 1665 1731 1577 1676 1659 1619 1647 1763 1704 1742 1709 1759 1639 1738 1706 1617 1678 1698 1657 1687 1702 1676 1681 1683 1707 1653 1736 1648 1655 1717 1669 1648 1668 1642 1739 1701 1659 1683 1684 1688 1679 1738 1667 1676 1704 1677 1684 1720 1715 1712 1700 1742 1759 1717 1763 1660 1705 1742 1717 1686 1707 1673 1660 1687 1759 1710 1759 1763 1611 1724 1697 1737 1623 1774 1819 1671 1666 1615 1702 1755 1765 1639 1800 1722 1767 1710 1712 1792 1727 1732 1757 1729 1813 1840 1836 1773 1770 1757 1736 1747 1817 1812 1745 1817 1760 1809 1856 1887 1932 1894 1811 1938 1927 1968 1878 1920 1895 1931 1917 1925 1891 1954 1895 1848 1958 1914 1959 1994 2016 2024 2064 2048 2074 1932 2063 1981 2040 2039 2027 2041 1971 2034 1966 1990 1964 2069 1942 2068 1999 1989 2040 1973 2008 2000 2082 1964 1972 2000 2028 1902 1992 1948 1923 1969 2008 1966 1936 1842 1972 1914 1901 1817 1842 1893 1890 1915 1882 1904 1840 1873 1848 1886 1803 1821 1767 1786 1837 1794 1787 1791 1815 1747 1771 1762 1871 1807 1723 1793 1754 1742 1764 1758 1763 1838 1752 1749 1773 1786 1752 1752 1739 1727 1804 1732 1675 1754 1789 1729 1741 1697 1650 1701 1729 1776 1750 1780 1775 1835 1739 1765 1751 1745 1718 1728 1729 1697 1733 1751 1777 1781 1778 1688 1796 1811 1719 1748 1668 1763 1736 1753 1703 1785 1712 1702 1772 1751 1722 1760 1729 1700 1673 1776 1712 1763 1721 1815 1636 1684 1780 1699 1701 1687 1721 1702 1777 1710 1739 1689 1740 1735 1685 1699 1733 1759 1825 1806 1688 1681 1714 1739 1728 1746 1731 1786 1743 1714 1764 1750 1700 1754 1677 1783 1690 1734 1764 1743 1726 1718 1692 1743 1731 1687 1677 1712 1733 1675 1763 1696 1675 1709 1649 1711 1782 1786 1752 1665 1611 1684 1719 1685 1785 1705 1750 1723 1714 1745 1707 1727 1709 1730 1736 1682 1677 1637 1726 1740 1716 1749 1691 1733 1723 1698 1678 1745 1686 1743 1711 1755 1804 1727 1699 1770 1697 1725 1749 1725 1769 1699 1735 1780 1728 1724 1690 1745 1701 1704 1722 1710 1755 1679 1754 1739 1676 1683 1724 1733 1667 1743 1729 1635 1744 1748 1646 1758 1707 1698 1681 1713 1684 1723 1730 1664 1666 1710 1686 1656 1743 1692 1672 1760 1707 1772 1736 1749 1742 1762 1764 1756 1684 1731 1659 1642 1707 1714 1730 1842 1725 1770 1656 1750 1710 1718 1685 1584 1765 1605 1653 1746 1639 1648 1621 1697 1615 1741 1720 1748 1722 1682 1722 1695 1645 1747 1750 1751 1732 1653 1675 1679 1763 1728 1666 1834 1783 1752 1673 1697 1807 1731 1752 1750 1731 1682 1712 1619 1696 1728 1722 1721 1699 1735 1697 1807 1684 1692 1711 1713 1730 1652 1646 1764 1730 1713 1675 1773 1765 1715 1735 1689 1802 1727 1692 1676 1646 1709 1658 1759 1768 1672 1703 1615 1692 1700 1646 1756 1662 1680 1691 1700 1723 1603 1699 1734 1684 1759 1704 1660 1668 1778 1713 1733 1740 1673 1708 1740 1598 1723 1707 1655 1704 1725 1701 1726 1767 1785 1750 1692 1718 1630 1756 1739 1772 1630 1767 1669 1738 1678 1694 1595 1656 1694 1738 1755 1709 1685 1750 1730 1634 1684 1709 1667 1689 1690 1642 1697 1771 1741 1701 1679 1733 1722 1720 1701 1665 1744 1682 1698 1750 1673 1682 1725 1752 1707 1634 1659 1722 1721 1669 1794 1714 1748 1762 1679 1728 1619 1764 1739 1718 1682 1721 1646 1653 1795 1659 1692 1742 1654 1714 1771 1609 1641 1688 1685 1661 1664 1716 1739 1646 1674 1673 1730 1723 1659 1722 1721 1718 1687 1721 1692 1681 1684 1660 1696 1638 1725 1718 1767 1671 1703 1697 1748 1738 1731 1637 1703 1730 1682 1722 1738 1694 1716 1686 1730 1696 1637 1667 1786 1669 1674 1664 1694 1749 1696 1728 1742 1767 1680 1691 1712 1738 1669 1714 1758 1650 1680 1696 1729 1715 1663 1738 1706 1729 1710 1783 1681 1682 1807 1690 1708 1700 1688 1645 1720 1713 1764 1658 1695 1702 1708 1714 1711 1723 1762 1735 1737 1721 1775 1728 1736 1628 1685 1692 1747 1718 1719 1716 1704 1713 1732 1772 1682 1735 1673 1695 1665 1805 1710 1820 1751 1693 1822 1720 1764 1750 1701 1802 1742 1697 1776 1753 1712 1691 1687 1755 1781 1782 1791 1794 1776 1777</counts>
			</dataPoints>
		</scan>
	</xrdMeasurement>
</xrdMeasurements>
