<?xml version="1.0"?>
<xrdMeasurements xmlns="http://www.xrdml.com/XRDMeasurement/2.3" xmlns:xsi="http://www.w3.org/2001/XMLSchema-instance" xsi:schemaLocation="http://www.xrdml.com/XRDMeasurement/2.3 http://www.xrdml.com/XRDMeasurement/2.3/XRDMeasurement.xsd" status="Completed" recordIdentifier="{D65D95F0-E5AD-4F6E-B8B4-0DF3BA83529E}">
	<comment>
		<entry/>
	</comment>
	<sample type="To be analyzed">
		<id>GPSS_Li1p6Cr0p5Fe0p5Cl4_110625_690d9f07f040177efa2b78e3</id>
		<name></name>
		<preparedBy></preparedBy>
	</sample>
	<xrdMeasurement measurementType="Scan" status="Completed" sampleMode="Reflection">
		<usedWavelength intended="K-Alpha 1">
			<kAlpha1 unit="Angstrom">1.5405980</kAlpha1>
			<kAlpha2 unit="Angstrom">1.5444260</kAlpha2>
			<kBeta unit="Angstrom">1.3922500</kBeta>
			<ratioKAlpha2KAlpha1>0.5000</ratioKAlpha2KAlpha1>
		</usedWavelength>
		<incidentBeamPath>
			<radius unit="mm">145.00</radius>
			<xRayTube id="1010048" name="Empyrean Cu LFF HR (9430 033 7310x)">
				<tension unit="kV">40.0</tension>
				<current unit="mA">15.0</current>
				<anodeMaterial>Cu</anodeMaterial>
				<focus type="Line">
					<length unit="mm">12.0</length>
					<width unit="mm">0.4</width>
					<takeOffAngle unit="deg">6.0</takeOffAngle>
				</focus>
			</xRayTube>
			<sollerSlit id="21010002" name="Soller slits 0.04 rad.">
				<opening unit="rad">0.0400</opening>
			</sollerSlit>
			<mask id="22031000" name="Fixed mask 13 mm">
				<width unit="mm">9.00</width>
			</mask>
			<divergenceSlit id="22120001" name="Divergence slit 1°" xsi:type="fixedDivergenceSlitType">
				<distanceToSample unit="mm">50.00</distanceToSample>
				<height unit="mm">1.52</height>
			</divergenceSlit>
		</incidentBeamPath>
		<sampleMovement xsi:type="spinningSampleMovementType">
			<spinnerRevolutionTime unit="seconds">1.0</spinnerRevolutionTime>
		</sampleMovement>
		<diffractedBeamPath>
			<radius unit="mm">145.00</radius>
			<antiScatterSlit id="22090040" name="AS slit 9 mm (PIXcel)" xsi:type="fixedAntiScatterSlitType">
				<height unit="mm">9.00</height>
			</antiScatterSlit>
			<sollerSlit id="21020003" name="Large Soller slits 0.04 rad.">
				<opening unit="rad">0.0400</opening>
			</sollerSlit>
			<filter id="20030001" name="Large beta-filter Nickel">
				<material>Ni</material>
				<thickness unit="mm">0.020</thickness>
			</filter>
			<detector id="7010019" name="PIXcel1D-Medipix3 detector" xsi:type="rtmsDetectorType">
				<phd unit="keV">
					<lowerLevel>4.02</lowerLevel>
					<upperLevel>11.27</upperLevel>
				</phd>
				<mode>Scanning</mode>
				<activeLength unit="deg">5.542</activeLength>
			</detector>
		</diffractedBeamPath>
		<scan appendNumber="0" mode="Continuous" scanAxis="Gonio" status="Completed">
			<header>
				<startTimeStamp>2025-11-08T14:45:56-08:00</startTimeStamp>
				<endTimeStamp>2025-11-08T14:54:03-08:00</endTimeStamp>
				<author>
					<name>AutomatedUser</name>
				</author>
				<source>
					<applicationSoftware version="1.7b (136)">PANalytical Aeris Instrument Suite</applicationSoftware>
					<instrumentControlSoftware version="3.2.00000000 20240306">AERIS</instrumentControlSoftware>
					<instrumentID>950485</instrumentID>
				</source>
			</header>
			<dataPoints>
				<positions axis="2Theta" unit="deg">
					<startPosition>10.00943322</startPosition>
					<endPosition>99.99442286</endPosition>
				</positions>
				<positions axis="Omega" unit="deg">
					<startPosition>5.00471661</startPosition>
					<endPosition>49.99721143</endPosition>
				</positions>
				<commonCountingTime unit="seconds">12.495</commonCountingTime>
				<counts unit="counts">3014 2970 3065 3010 3004 3072 3015 3044 3036 3040 2989 2905 3023 2998 3080 3050 3078 3047 3007 2976 3000 3024 2987 3027 3100 2972 3049 2972 2955 3032 2995 3020 3015 3036 3007 3028 3044 2970 2961 2967 3008 3102 3116 3051 2994 3067 2977 2890 3016 2931 3091 3165 3049 2962 2985 3080 3036 3176 3032 3019 3041 2997 3053 2962 3041 3083 2984 3124 3013 3035 3039 3155 3010 3160 3141 3135 3100 3022 3065 3048 3119 3228 3082 3073 3070 3087 3058 3237 3105 3111 3122 3042 3115 3098 3094 3139 3086 3136 3093 3168 3148 3116 3186 3021 3078 3081 3066 3106 3177 2960 3137 3059 3077 3044 3081 3121 3074 3050 2988 2992 3090 3003 3067 3157 3140 3142 3008 3054 3066 3091 3008 3047 3010 3068 2952 3078 3010 3104 2998 3042 3069 2981 3115 3020 3046 3061 3084 3079 3139 3041 3073 3027 3042 2981 3132 3071 2986 2942 3060 2989 3020 3072 2938 3005 3008 3009 3088 3029 3013 2988 3088 3085 3081 3102 3070 3055 2985 3057 3046 3085 3031 3045 3008 3014 3011 3015 2928 3115 2997 2994 3097 3000 2952 3065 2967 2961 3030 3044 2956 2960 2978 3026 3079 2828 2997 2903 3073 3080 3016 2958 2908 2987 3050 2969 3073 2953 3094 2942 2912 2889 2928 2997 2992 3003 3030 2976 3024 2920 2989 3046 2927 2957 2960 2960 2933 2924 3031 2928 3056 3015 3054 2986 2994 2919 2979 2974 3037 3052 2948 2968 2988 3024 2946 3059 2983 2993 2985 3038 2972 2973 2989 2993 3054 3022 2984 3006 3037 3026 3042 2948 2945 2944 2985 2923 3012 3104 3005 3106 2990 3082 2977 3008 2979 3015 2964 2945 3009 2993 3003 2971 3070 2989 3014 3030 3072 3017 3093 3065 3116 3097 3069 3078 3055 3059 2997 3071 3019 3133 3033 3106 3077 3105 3023 3056 3082 3114 3042 3221 3111 3106 3083 3076 3092 3080 3139 3020 3117 3091 3192 3218 3187 3187 3300 3163 3122 3231 3133 3185 3285 3290 3219 3193 3278 3246 3280 3262 3249 3244 3387 3269 3242 3261 3353 3197 3394 3277 3330 3231 3323 3414 3282 3296 3320 3406 3385 3319 3415 3444 3423 3369 3304 3397 3454 3455 3440 3428 3434 3521 3461 3415 3430 3430 3465 3406 3434 3518 3526 3550 3494 3444 3445 3503 3537 3487 3626 3595 3635 3556 3570 3665 3557 3531 3600 3507 3507 3608 3658 3628 3567 3739 3662 3724 3617 3662 3778 3583 3792 3644 3762 3724 3728 3748 3760 3787 3758 3773 3739 3943 3867 3903 3875 3997 4062 3926 3915 3992 4268 4085 4066 4315 4230 4353 4438 4441 4480 4595 4550 4680 4747 4850 4876 5041 5006 5175 5152 5357 5503 5476 5667 5573 5697 5919 6068 5913 6191 6212 6287 6607 6696 6848 6832 7109 7227 7435 7376 7505 7560 7807 7921 7694 7960 7737 7861 7807 7825 7863 7686 7903 7834 7695 7798 7881 7775 7817 8024 8170 8145 8300 7923 8375 8361 8414 8184 8303 8134 8159 8046 8084 7857 7782 7490 7199 7195 6797 6538 6622 6278 6274 6016 5866 5735 5369 5389 5087 4715 4646 4284 4073 3944 3848 3812 3777 3721 3643 3666 3686 3591 3540 3389 3505 3495 3416 3516 3498 3526 3530 3438 3408 3545 3430 3373 3480 3419 3468 3342 3355 3407 3484 3379 3307 3313 3333 3391 3366 3430 3320 3414 3411 3307 3309 3334 3405 3294 3188 3423 3312 3285 3366 3249 3300 3318 3236 3299 3296 3278 3330 3263 3261 3371 3201 3214 3262 3305 3187 3325 3222 3187 3289 3336 3352 3215 3192 3344 3169 3175 3201 3207 3224 3234 3267 3196 3190 3250 3253 3213 3302 3279 3118 3135 3084 3194 3194 3189 3244 3171 3169 3207 3199 3133 3149 3093 3202 3183 3143 3186 3206 3135 3152 3183 3096 3194 3118 3286 3190 3244 3269 3175 3239 3201 3242 3159 3240 3222 3208 3237 3151 3286 3191 3249 3367 3301 3202 3267 3214 3325 3413 3241 3321 3160 3293 3256 3352 3243 3339 3331 3440 3411 3365 3405 3466 3563 3516 3440 3350 3342 3370 3431 3391 3378 3486 3494 3435 3391 3551 3432 3538 3351 3497 3393 3433 3304 3353 3236 3250 3230 3240 3250 3211 3194 3263 3132 3088 3272 3035 3258 3151 3023 3167 3100 3001 3134 3127 3079 3187 3136 3081 3106 3082 3091 3071 3087 3000 3181 3086 3062 3110 3086 3167 2960 3046 3110 3054 3082 3014 2977 3113 3057 3077 3072 3042 3046 3088 3063 3085 2977 3074 3117 3073 3061 3074 2982 2939 3072 3049 3000 2940 3032 3016 2955 3011 3047 3016 2953 3003 3081 2984 3065 3050 3053 3080 3101 3045 3114 3113 3015 2985 3102 2955 3021 3066 2967 2946 3059 3037 3015 3101 2963 2975 2928 2936 3020 3013 2985 2899 2980 2966 3005 3048 2978 2930 2968 2900 2982 2982 3026 3004 2973 2969 2906 2935 2962 3015 2924 3014 3010 2957 2950 2894 2953 3079 2986 2996 3012 2937 2968 2970 2907 2877 2903 2964 2984 3008 2918 2961 2927 2968 2808 3036 2903 2936 2917 2908 2824 2969 2966 2944 2809 2968 2943 2904 2929 2918 2981 2888 2880 2914 2950 2975 2910 2902 2902 2904 2841 2923 2882 2903 2917 2795 2905 2898 2929 2920 2956 2915 2919 2888 2950 2972 2924 2990 2935 2956 2861 2985 2807 2931 2931 2860 2823 2905 2916 2906 2961 2793 2845 2902 2979 2923 2861 2990 2976 2851 2946 2904 3019 2946 3055 2933 3071 2947 3032 3155 2952 3029 2944 3029 2979 2961 3004 3142 3083 3123 3068 3072 3094 3137 3111 3110 3138 3186 3101 3141 3175 3243 3255 3285 3203 3192 3275 3205 3303 3177 3164 3102 3256 3107 3235 3046 3096 3065 2979 2981 2945 3015 2816 2826 2824 2827 2846 2884 2763 2815 2776 2820 2786 2728 2777 2801 2787 2829 2661 2770 2776 2765 2803 2812 2837 2690 2904 2802 2793 2784 2808 2790 2778 2825 2761 2783 2684 2656 2730 2813 2800 2826 2783 2821 2704 2840 2852 2803 2726 2703 2762 2751 2695 2748 2846 2818 2771 2880 2866 2736 2692 2698 2778 2785 2724 2781 2867 2757 2745 2805 2755 2806 2759 2814 2799 2822 2737 2745 2727 2627 2716 2845 2811 2819 2818 2687 2731 2704 2778 2769 2752 2781 2911 2876 2783 2911 2796 2797 2792 2875 2788 2761 2808 2693 2834 2742 2797 2710 2774 2725 2716 2874 2911 2841 2749 2780 2752 2779 2717 2792 2815 2800 2757 2870 2832 2793 2842 2672 2773 2694 2811 2779 2652 2784 2767 2886 2805 2764 2726 2849 2795 2814 2719 2822 2875 2737 2801 2782 2782 2765 2710 2849 2609 2707 2739 2721 2742 2729 2819 2753 2649 2679 2723 2795 2736 2737 2746 2729 2647 2703 2729 2702 2747 2655 2756 2656 2714 2764 2691 2595 2694 2681 2704 2668 2664 2705 2646 2702 2635 2690 2736 2533 2636 2762 2507 2676 2646 2638 2641 2701 2663 2683 2682 2766 2631 2629 2662 2570 2674 2650 2584 2626 2660 2627 2480 2519 2680 2640 2636 2542 2515 2537 2653 2631 2699 2524 2705 2429 2551 2636 2596 2462 2612 2534 2496 2538 2505 2461 2465 2436 2574 2487 2592 2583 2554 2497 2494 2461 2610 2502 2403 2545 2441 2468 2438 2366 2418 2521 2526 2474 2452 2458 2529 2485 2427 2311 2359 2430 2404 2440 2454 2410 2344 2461 2516 2305 2418 2451 2269 2460 2388 2345 2346 2412 2307 2420 2339 2387 2359 2375 2396 2402 2314 2395 2368 2317 2286 2218 2308 2302 2314 2279 2227 2285 2318 2357 2350 2305 2304 2331 2238 2350 2234 2271 2243 2240 2335 2395 2314 2295 2254 2276 2298 2200 2411 2295 2298 2235 2209 2207 2241 2231 2353 2249 2277 2257 2212 2247 2247 2288 2220 2154 2267 2296 2206 2335 2255 2205 2405 2190 2328 2275 2316 2256 2309 2376 2290 2396 2255 2362 2307 2222 2348 2406 2321 2430 2297 2289 2339 2305 2309 2354 2246 2368 2433 2301 2264 2359 2360 2311 2433 2446 2367 2371 2386 2352 2313 2310 2429 2399 2452 2367 2315 2437 2367 2364 2362 2403 2377 2338 2280 2318 2332 2365 2307 2211 2192 2269 2302 2290 2224 2199 2228 2223 2230 2262 2158 2150 2094 2148 2207 2072 2155 2210 2219 2111 2171 2144 2199 2082 2194 2188 2247 2161 2148 2077 2131 2114 2193 2103 2213 2173 2169 2086 2176 2172 2176 2260 2185 2133 2086 2097 2196 2119 2112 2175 2080 2193 2192 2254 2145 2173 2169 2205 2193 2058 2079 2193 2123 2202 2169 2205 2213 2180 2139 2222 2215 2140 2249 2156 2127 2020 2099 2235 2163 2140 2086 2154 2198 2134 2120 2187 2117 2133 2219 2189 2177 2135 2187 2074 2254 2261 2166 2172 2264 2120 2160 2159 2170 2141 2182 2149 2217 2224 2223 2160 2256 2070 2198 2229 2201 2169 2126 2111 2198 2045 2114 2046 2089 2135 2176 2218 2163 2223 2117 2178 2163 2173 2299 2122 2164 2185 2221 2098 2180 2131 2194 2159 2192 2238 2158 2113 2212 2133 2077 2139 2112 2167 2135 2163 2200 2159 2108 2204 2191 2107 2153 2165 2103 2131 2081 2052 2166 2036 2153 2158 2148 2074 2106 2121 2075 2086 2075 2111 2143 2157 2159 2143 2130 2202 2154 2130 2162 2096 2057 2096 2200 2070 2200 2079 2034 2089 2043 2146 2148 2061 2085 2117 2124 2127 2155 2072 2161 2132 2011 2072 2066 2049 2073 2103 2101 2017 2129 2115 2097 2022 2072 2149 2014 2040 2027 2068 2016 2023 2057 2054 1978 2004 1916 2076 2031 1949 2058 1959 2068 2013 2016 1933 1963 1891 1965 1920 2005 1820 1984 1974 1935 2026 2021 1941 2026 1944 1970 1872 1985 1938 1882 1953 1965 1869 1981 1894 2012 1832 1963 1974 1922 1870 1874 1938 1882 1898 1876 1906 1935 1872 1861 1881 1821 1918 1972 1907 1886 1880 1878 1896 1892 1903 1894 1845 1918 1861 1784 1862 1890 1869 1845 1887 1856 1915 1904 1820 1850 1804 1957 1857 1801 1785 1898 1883 1896 1884 1875 1828 1875 1855 1824 1969 1878 1930 1868 1845 1802 1843 1917 1825 1884 1839 1870 1932 1882 1918 1905 1913 2037 1948 1933 1949 1978 1920 2014 2104 1974 2011 2094 1949 2051 2057 2093 2112 2077 2119 2083 2183 2073 2130 2112 2101 2161 2150 2135 2157 2285 2253 2265 2215 2309 2269 2197 2261 2225 2231 2177 2162 2235 2191 2185 2193 2203 2280 2189 2191 2150 2183 2187 2152 2102 2127 2134 2056 2029 2054 1988 1989 2007 1913 1931 1926 1947 1893 1979 2017 1929 1937 1878 1879 1891 1916 1791 1914 1872 1899 1798 1846 1796 1785 1863 1824 1774 1819 1753 1737 1689 1807 1799 1813 1699 1805 1866 1766 1726 1799 1750 1757 1843 1804 1795 1829 1898 1826 1841 1885 1810 1958 1864 1882 1912 1950 2028 2053 2068 2045 2095 2154 2186 2175 2262 2289 2350 2394 2580 2598 2587 2622 2810 2700 2877 2939 3065 3067 3194 3239 3424 3463 3533 3576 3663 3686 3658 3725 3728 3842 3846 3773 3637 3842 3820 3893 3857 3735 3703 3800 3704 3800 3776 3883 3784 3846 3668 3601 3686 3686 3574 3701 3503 3508 3312 3268 3270 3095 3053 2855 2786 2596 2662 2477 2392 2364 2315 2305 2213 2238 2141 2131 2088 2103 2052 1995 2116 1962 2031 2005 2010 1977 1962 2054 2085 1917 2033 1938 2114 1994 2095 1942 2088 2070 2161 2106 2043 2160 2171 2200 2100 2168 2250 2182 2166 2221 2151 2242 2274 2290 2297 2234 2221 2249 2181 2189 2209 2218 2263 2174 2183 2146 2176 2168 2140 2013 2055 1983 1980 1794 1985 1860 1764 1850 1800 1677 1740 1665 1689 1727 1666 1708 1724 1547 1639 1687 1649 1634 1658 1626 1578 1597 1637 1578 1540 1525 1690 1639 1591 1553 1658 1564 1582 1592 1640 1543 1592 1537 1629 1519 1611 1561 1539 1535 1576 1524 1610 1536 1642 1575 1586 1542 1665 1677 1601 1600 1558 1549 1598 1614 1648 1661 1575 1549 1596 1578 1593 1667 1627 1528 1552 1606 1561 1491 1712 1617 1621 1559 1553 1552 1571 1550 1525 1625 1534 1600 1576 1576 1533 1607 1597 1547 1622 1521 1531 1532 1579 1543 1530 1520 1512 1546 1557 1498 1560 1527 1599 1462 1541 1562 1478 1529 1540 1529 1563 1569 1457 1573 1568 1609 1570 1539 1642 1552 1528 1540 1527 1545 1549 1518 1519 1577 1515 1566 1544 1488 1578 1588 1595 1615 1603 1603 1536 1582 1644 1631 1608 1560 1620 1650 1547 1517 1636 1485 1554 1606 1628 1547 1507 1505 1566 1570 1607 1560 1575 1588 1559 1585 1530 1513 1522 1531 1492 1518 1567 1554 1464 1506 1584 1481 1527 1511 1519 1565 1516 1464 1480 1527 1527 1523 1485 1496 1489 1488 1460 1503 1568 1495 1497 1478 1520 1612 1461 1470 1508 1540 1609 1507 1472 1473 1493 1485 1546 1508 1563 1473 1521 1531 1496 1507 1498 1521 1489 1500 1576 1522 1520 1565 1541 1570 1629 1589 1593 1549 1549 1512 1520 1472 1578 1461 1566 1605 1577 1571 1607 1632 1519 1663 1633 1570 1556 1667 1555 1573 1611 1606 1587 1632 1532 1536 1651 1688 1624 1592 1597 1602 1632 1621 1580 1626 1549 1625 1645 1653 1684 1623 1681 1655 1658 1617 1652 1726 1737 1701 1655 1686 1631 1721 1722 1730 1735 1680 1797 1869 1926 1861 1984 1943 1980 1928 2020 2038 2092 2053 2115 2166 2212 2256 2344 2318 2447 2564 2533 2662 2813 2768 2941 3000 2983 3153 3243 3256 3453 3608 3723 3781 3935 4028 4183 4310 4491 4476 4588 4684 4787 4908 5117 5057 5295 5359 5418 5398 5554 5586 5654 5756 5824 5902 5975 5855 5884 6009 6000 5977 5927 6104 5933 5720 5726 5711 5414 5300 5264 5045 5022 4755 4569 4587 4311 4298 4037 3815 3785 3585 3453 3376 3238 3212 3102 3133 2992 2943 2891 2747 2745 2718 2529 2581 2480 2492 2368 2452 2298 2382 2205 2265 2137 2194 2092 2090 2014 1924 2005 1907 2003 1933 1942 1831 1781 1777 1838 1751 1843 1803 1779 1752 1734 1715 1709 1735 1745 1725 1725 1650 1662 1689 1573 1689 1673 1644 1737 1561 1640 1640 1587 1654 1654 1600 1565 1558 1645 1605 1675 1625 1639 1587 1632 1584 1588 1640 1574 1636 1575 1630 1596 1548 1538 1609 1610 1633 1664 1641 1649 1623 1599 1686 1640 1737 1596 1601 1612 1681 1664 1661 1666 1679 1653 1693 1682 1631 1687 1603 1671 1709 1674 1740 1694 1637 1706 1646 1646 1660 1625 1690 1629 1730 1669 1729 1633 1699 1656 1765 1770 1719 1682 1678 1600 1677 1607 1630 1631 1590 1636 1634 1606 1648 1574 1551 1620 1593 1555 1579 1540 1548 1517 1622 1540 1498 1577 1466 1553 1536 1569 1488 1489 1504 1455 1458 1479 1485 1520 1387 1542 1483 1498 1546 1459 1464 1425 1484 1364 1566 1443 1516 1506 1430 1431 1466 1469 1389 1430 1467 1437 1379 1441 1387 1477 1385 1367 1396 1334 1385 1378 1477 1425 1418 1380 1455 1465 1428 1420 1392 1387 1452 1414 1529 1373 1450 1414 1337 1433 1390 1341 1441 1398 1438 1422 1444 1397 1396 1368 1433 1410 1440 1339 1398 1431 1411 1410 1497 1435 1488 1436 1385 1430 1375 1450 1430 1466 1458 1482 1404 1471 1480 1475 1344 1468 1441 1453 1422 1480 1418 1460 1470 1331 1488 1395 1534 1459 1456 1424 1506 1421 1452 1455 1430 1419 1459 1422 1437 1460 1439 1412 1521 1432 1480 1531 1451 1422 1384 1452 1454 1414 1404 1421 1391 1408 1455 1411 1458 1405 1437 1436 1417 1400 1330 1460 1436 1390 1396 1399 1412 1402 1434 1389 1443 1509 1399 1438 1440 1400 1376 1339 1409 1433 1306 1382 1368 1418 1409 1388 1439 1395 1442 1416 1414 1353 1430 1374 1390 1419 1383 1390 1416 1399 1429 1424 1431 1384 1388 1381 1410 1390 1463 1418 1431 1420 1393 1455 1448 1428 1470 1463 1450 1449 1474 1433 1470 1441 1435 1495 1431 1443 1440 1386 1382 1430 1431 1385 1410 1410 1418 1395 1400 1447 1376 1434 1361 1384 1346 1386 1368 1366 1388 1368 1429 1335 1459 1359 1325 1353 1399 1441 1319 1414 1330 1327 1301 1299 1335 1341 1325 1379 1392 1361 1332 1288 1276 1328 1331 1349 1343 1381 1403 1361 1337 1306 1291 1326 1343 1264 1370 1324 1322 1308 1416 1303 1238 1280 1294 1292 1366 1347 1302 1330 1335 1315 1345 1263 1374 1356 1332 1322 1335 1271 1379 1369 1314 1337 1338 1362 1340 1377 1294 1321 1405 1303 1320 1342 1275 1303 1334 1367 1295 1274 1354 1282 1308 1415 1297 1317 1322 1382 1404 1327 1346 1323 1320 1381 1369 1375 1437 1359 1389 1382 1367 1395 1370 1417 1393 1333 1357 1375 1373 1413 1430 1394 1356 1282 1296 1402 1393 1382 1397 1331 1387 1374 1331 1415 1349 1277 1375 1383 1339 1392 1357 1351 1308 1357 1333 1361 1418 1327 1320 1298 1338 1323 1223 1293 1308 1349 1322 1316 1268 1324 1318 1327 1354 1289 1302 1315 1292 1319 1388 1365 1254 1322 1326 1297 1372 1258 1309 1274 1301 1362 1349 1315 1343 1270 1368 1365 1310 1300 1248 1282 1371 1269 1316 1245 1375 1305 1272 1244 1327 1331 1322 1348 1316 1250 1371 1349 1348 1250 1357 1347 1303 1260 1296 1280 1394 1301 1301 1304 1311 1318 1287 1253 1289 1278 1342 1328 1327 1340 1270 1329 1328 1320 1361 1319 1272 1357 1418 1298 1410 1350 1360 1381 1334 1345 1371 1321 1375 1409 1364 1420 1365 1407 1404 1388 1362 1460 1383 1426 1391 1427 1352 1312 1361 1390 1375 1369 1329 1332 1405 1382 1379 1350 1322 1342 1343 1351 1326 1381 1315 1322 1406 1335 1383 1307 1299 1238 1360 1287 1311 1303 1273 1342 1329 1297 1370 1281 1343 1300 1395 1269 1301 1357 1304 1267 1323 1294 1241 1227 1326 1324 1304 1357 1305 1369 1240 1249 1315 1318 1305 1366 1233 1310 1301 1332 1283 1301 1379 1328 1274 1332 1319 1342 1399 1277 1354 1349 1377 1304 1394 1367 1301 1359 1319 1292 1380 1299 1322 1313 1308 1422 1352 1319 1302 1321 1365 1307 1302 1323 1247 1251 1326 1319 1290 1288 1341 1313 1209 1291 1301 1318 1305 1258 1308 1273 1269 1291 1243 1297 1334 1241 1211 1285 1271 1308 1239 1301 1299 1270 1289 1307 1353 1260 1296 1292 1372 1250 1308 1298 1332 1243 1263 1307 1333 1297 1234 1336 1277 1289 1317 1196 1260 1273 1313 1267 1329 1320 1321 1224 1280 1298 1265 1295 1300 1306 1333 1263 1240 1247 1301 1286 1289 1335 1335 1297 1318 1236 1343 1271 1301 1273 1310 1297 1370 1266 1261 1224 1316 1290 1243 1311 1263 1266 1262 1250 1181 1235 1280 1262 1170 1256 1306 1259 1265 1247 1287 1285 1310 1280 1242 1277 1275 1328 1264 1259 1255 1337 1220 1263 1320 1231 1245 1279 1274 1281 1192 1248 1235 1272 1283 1227 1288 1310 1288 1209 1210 1270 1319 1275 1290 1242 1259 1265 1318 1277 1287 1253 1207 1287 1307 1294 1331 1269 1267 1266 1249 1341 1253 1313 1252 1273 1337 1231 1254 1309 1257 1301 1314 1282 1294 1338 1277 1265 1247 1274 1263 1309 1346 1293 1251 1276 1288 1306 1312 1372 1335 1270 1296 1375 1359 1313 1379 1358 1352 1320 1381 1403 1418 1407 1342 1327 1358 1377 1376 1403 1323 1465 1450 1426 1442 1385 1470 1412 1444 1473 1424 1529 1491 1496 1430 1471 1385 1497 1520 1465 1541 1455 1542 1524 1554 1463 1525 1531 1534 1538 1566 1550 1527 1579 1524 1489 1476 1543 1573 1517 1518 1462 1463 1519 1441 1492 1489 1584 1408 1444 1453 1451 1474 1518 1443 1384 1381 1440 1390 1442 1433 1392 1391 1443 1402 1391 1342 1412 1409 1443 1340 1389 1370 1407 1450 1398 1403 1342 1323 1379 1433 1386 1334 1392 1416 1408 1429 1446 1374 1456 1434 1386 1365 1432 1341 1395 1294 1433 1387 1419 1411 1369 1380 1486 1401 1440 1331 1328 1310 1448 1442 1326 1295 1318 1393 1432 1337 1296 1428 1313 1348 1351 1283 1416 1275 1313 1294 1306 1303 1362 1300 1296 1265 1256 1319 1290 1278 1370 1233 1314 1389 1300 1328 1334 1360 1310 1350 1326 1268 1268 1213 1350 1215 1314 1314 1279 1270 1212 1301 1250 1282 1288 1242 1281 1262 1257 1281 1306 1257 1314 1251 1244 1250 1323 1280 1330 1320 1328 1382 1282 1294 1361 1322 1319 1328 1286 1317 1253 1300 1294 1245 1268 1325 1329 1301 1333 1294 1372 1345 1243 1323 1275 1271 1296 1348 1338 1336 1277 1289 1303 1260 1310 1331 1235 1273 1375 1321 1296 1315 1341 1245 1333 1305 1315 1318 1293 1255 1289 1309 1261 1244 1212 1291 1249 1278 1271 1252 1261 1304 1278 1276 1257 1340 1255 1228 1241 1266 1231 1244 1279 1294 1376 1313 1267 1255 1290 1305 1297 1280 1241 1262 1194 1287 1225 1299 1195 1252 1237 1282 1254 1239 1241 1265 1278 1319 1269 1265 1257 1308 1206 1257 1335 1293 1240 1294 1286 1253 1286 1275 1324 1279 1278 1324 1284 1352 1256 1288 1288 1344 1288 1350 1271 1319 1330 1346 1334 1280 1321 1369 1304 1314 1332 1295 1268 1351 1351 1339 1368 1321 1322 1347 1349 1279 1288 1375 1261 1313 1353 1305 1296 1325 1305 1297 1261 1354 1264 1242 1367 1244 1296 1252 1346 1384 1344 1241 1310 1327 1298 1290 1337 1288 1282 1347 1354 1387 1448 1335 1341 1415 1322 1426 1413 1393 1426 1386 1460 1390 1428 1457 1510 1474 1545 1498 1507 1531 1538 1603 1629 1591 1590 1624 1684 1675 1629 1698 1714 1657 1757 1799 1824 1785 1818 1842 1897 1945 1885 1914 1932 2000 2130 1996 2106 2164 2186 2233 2241 2265 2281 2324 2350 2422 2530 2594 2585 2643 2600 2591 2730 2759 2713 2774 2822 2878 2917 2876 3085 2947 2961 2978 2926 2982 2975 3009 2985 3043 2845 2888 2948 2880 2975 2887 2868 2790 2765 2683 2678 2612 2500 2550 2522 2356 2405 2352 2163 2193 2149 2149 2060 1978 2030 1987 1866 1864 1828 1827 1836 1847 1833 1858 1819 1760 1767 1721 1660 1663 1750 1659 1709 1588 1705 1730 1707 1646 1650 1593 1716 1627 1642 1603 1646 1677 1613 1708 1684 1623 1606 1556 1514 1581 1553 1570 1571 1561 1625 1547 1524 1499 1515 1615 1498 1500 1482 1504 1495 1493 1378 1480 1420 1422 1379 1412 1372 1357 1413 1426 1303 1370 1339 1360 1297 1408 1379 1317 1402 1314 1330 1338 1388 1358 1300 1296 1315 1329 1257 1282 1274 1357 1293 1288 1331 1330 1317 1342 1258 1300 1294 1367 1319 1285 1306 1281 1331 1278 1338 1305 1240 1288 1310 1290 1304 1288 1287 1344 1313 1335 1271 1311 1372 1253 1247 1308 1300 1336 1334 1346 1277 1295 1393 1327 1325 1405 1307 1341 1386 1420 1392 1315 1391 1407 1320 1384 1361 1395 1316 1415 1465 1410 1415 1433 1442 1408 1428 1339 1463 1437 1378 1479 1419 1512 1480 1439 1391 1401 1380 1409 1464 1470 1463 1470 1430 1441 1493 1477 1532 1527 1475 1417 1498 1502 1458 1459 1455 1513 1472 1463 1461 1493 1433 1525 1497 1470 1526 1466 1530 1431 1483 1524 1439 1470 1526 1472 1467 1479 1453 1436 1480 1436 1427 1342 1508 1428 1466 1448 1409 1445 1466 1399 1387 1374 1406 1379 1443 1379 1404 1421 1420 1372 1397 1366 1383 1411 1384 1383 1415 1354 1518 1467 1373 1389 1450 1380 1475 1434 1475 1505 1390 1514 1434 1518 1478 1531 1448 1519 1410 1491 1431 1540 1517 1416 1479 1443 1465 1503 1441 1509 1448 1445 1433 1401 1436 1408 1478 1459 1446 1388 1433 1394 1415 1369 1343 1387 1353 1330 1290 1305 1356 1335 1339 1325 1283 1283 1339 1320 1285 1295 1272 1366 1318 1279 1271 1308 1323 1287 1264 1293 1201 1291 1292 1260 1286 1259 1241 1279 1313 1203 1209 1275 1229 1211 1207 1195 1242 1286 1225 1282 1260 1208 1218 1257 1219 1272 1251 1156 1288 1234 1251 1284 1205 1215 1188 1324 1297 1179 1207 1229 1217 1202 1239 1206 1175 1281 1219 1199 1168 1280 1153 1192 1196 1224 1185 1197 1191 1216 1214 1219 1215 1242 1240 1206 1115 1216 1233 1274 1179 1238 1195 1202 1232 1168 1234 1199 1236 1190 1194 1217 1201 1235 1262 1199 1156 1231 1234 1206 1289 1192 1208 1202 1254 1202 1282 1214 1209 1282 1215 1265 1213 1227 1207 1187 1204 1219 1229 1219 1300 1212 1233 1249 1232 1308 1227 1156 1197 1277 1220 1242 1218 1238 1197 1154 1191 1253 1283 1231 1171 1238 1158 1190 1147 1237 1218 1240 1238 1135 1193 1186 1205 1269 1155 1268 1237 1189 1213 1180 1187 1227 1201 1185 1220 1258 1186 1276 1193 1270 1193 1279 1230 1223 1184 1186 1214 1296 1208 1172 1216 1177 1194 1224 1207 1227 1246 1243 1218 1250 1223 1201 1269 1239 1176 1153 1229 1211 1218 1192 1167 1166 1187 1220 1207 1280 1257 1164 1212 1237 1178 1252 1236 1209 1198 1264 1232 1219 1184 1224 1173 1186 1209 1222 1159 1212 1222 1251 1232 1173 1136 1227 1228 1199 1227 1232 1193 1200 1171 1247 1221 1174 1180 1166 1183 1177 1200 1198 1169 1191 1181 1181 1209 1189 1246 1142 1240 1186 1268 1215 1171 1230 1210 1186 1197 1236 1194 1185 1211 1234 1196 1255 1191 1147 1167 1240 1208 1232 1136 1177 1220 1211 1236 1252 1231 1189 1268 1267 1264 1185 1180 1196 1274 1251 1195 1184 1207 1226 1242 1187 1214 1168 1166 1192 1146 1208 1193 1234 1183 1200 1198 1209 1158 1188 1236 1156 1175 1172 1164 1167 1218 1203 1143 1208 1196 1185 1236 1178 1159 1218 1134 1135 1211 1153 1193 1203 1091 1240 1150 1193 1170 1194 1105 1203 1183 1189 1253 1232 1240 1204 1156 1200 1191 1210 1179 1132 1225 1164 1248 1213 1175 1099 1116 1159 1186 1241 1177 1167 1213 1152 1223 1175 1203 1141 1159 1121 1194 1099 1117 1170 1194 1241 1117 1134 1107 1162 1154 1081 1189 1167 1152 1156 1264 1189 1214 1186 1163 1120 1212 1181 1191 1182 1174 1192 1154 1141 1251 1198 1204 1194 1160 1188 1182 1177 1154 1265 1203 1270 1159 1151 1203 1175 1228 1179 1245 1156 1146 1144 1172 1144 1224 1212 1169 1198 1185 1216 1196 1199 1174 1176 1219 1225 1204 1200 1187 1185 1239 1164 1214 1202 1260 1173 1227 1274 1213 1222 1223 1134 1188 1257 1158 1227 1222 1191 1292 1210 1278 1288 1253 1261 1203 1259 1221 1206 1153 1238 1188 1269 1294 1208 1225 1265 1215 1176 1258 1192 1212 1199 1224 1208 1265 1236 1206 1299 1185 1226 1238 1285 1249 1315 1241 1267 1287 1317 1212 1266 1225 1329 1314 1299 1268 1288 1303 1297 1294 1280 1355 1317 1335 1375 1406 1384 1506 1389 1406 1483 1498 1525 1541 1606 1561 1579 1584 1555 1681 1611 1722 1601 1674 1723 1675 1673 1673 1706 1649 1768 1735 1732 1752 1705 1701 1610 1607 1658 1639 1648 1573 1580 1638 1639 1583 1559 1578 1469 1509 1453 1420 1462 1486 1411 1379 1415 1432 1407 1307 1321 1334 1368 1311 1368 1352 1262 1225 1317 1365 1269 1227 1276 1338 1257 1198 1241 1190 1203 1168 1172 1186 1192 1174 1168 1187 1175 1194 1212 1206 1168 1161 1199 1211 1254 1187 1222 1201 1209 1176 1180 1225 1188 1170 1169 1195 1195 1171 1255 1240 1214 1130 1215 1206 1218 1206 1179 1182 1189 1187 1220 1257 1204 1183 1176 1202 1219 1116 1198 1234 1238 1224 1192 1205 1190 1137 1222 1199 1209 1223 1236 1222 1150 1224 1185 1057 1158 1183 1128 1192 1184 1177 1145 1219 1190 1166 1213 1183 1155 1199 1237 1122 1203 1227 1172 1128 1136 1178 1153 1168 1175 1174 1152 1210 1160 1164 1203 1235 1264 1147 1161 1233 1170 1232 1197 1139 1153 1167 1205 1193 1203 1227 1176 1206 1160 1173 1153 1194 1144 1172 1119 1180 1172 1165 1266 1216 1228 1183 1191 1183 1167 1272 1195 1217 1199 1197 1197 1250 1240 1240 1205 1257 1249 1173 1192 1257 1156 1196 1224 1231 1285 1205 1286 1234 1292 1291 1251 1293 1345 1293 1339 1313 1321 1460 1292 1320 1372 1333 1346 1351 1370 1331 1344 1352 1309 1423 1410 1381 1328 1384 1481 1395 1417 1406 1444 1479 1401 1401 1391 1427 1426 1447 1374 1481 1444 1524 1460 1473 1453 1459 1487 1513 1613 1485 1559 1636 1611 1625 1507 1586 1582 1589 1672 1693 1660 1666 1709 1651 1714 1692 1767 1643 1683 1692 1593 1586 1708 1602 1717 1617 1701 1624 1658 1595 1615 1603 1518 1594 1548 1546 1513 1510 1511 1476 1479 1499 1362 1501 1469 1386 1367 1389 1343 1358 1395 1371 1327 1350 1353 1291 1328 1404 1277 1315 1350 1321 1345 1304 1249 1310 1300 1314 1279 1321 1225 1296 1234 1260 1269 1279 1292 1346 1269 1283 1274 1230 1221 1354 1292 1324 1318 1280 1307 1316 1233 1304 1280 1267 1385 1306 1323 1330 1334 1398 1326 1361 1336 1330 1375 1346 1360 1397 1412 1379 1321 1410 1485 1365 1467 1461 1381 1494 1389 1412 1397 1380 1435 1352 1416 1383 1384 1376 1424 1394 1414 1291 1352 1346 1361 1345 1344 1331 1312 1271 1293 1352 1324 1282 1294 1303 1305 1339 1297 1340 1319 1330 1274 1399 1312 1392 1326 1390 1357 1348 1423 1412 1472 1503 1516 1511 1553 1560 1578 1608 1614 1564 1583 1627 1628 1631 1565 1584 1574 1627 1638 1640 1640 1542 1625 1584 1563 1626 1487 1578 1530 1575 1502 1445 1479 1538 1466 1423 1435 1444 1395 1381 1369 1363 1314 1366 1350 1351 1408 1321 1325 1304 1256 1309 1262 1279 1361 1321 1299 1228 1297 1283 1242 1270 1320 1304 1331 1235 1215 1261 1220 1241 1257 1256 1221 1252 1239 1252 1283 1235 1273 1176 1238 1207 1255 1231 1184 1252 1254 1228 1182 1174 1283 1198 1158 1218 1209 1281 1292 1162 1255 1203 1203 1169 1203 1156 1317 1193 1318 1185 1208 1200 1235 1171 1216 1210 1280 1157 1248 1207 1243 1244 1264 1163 1231 1207 1190 1220 1204 1188 1259 1222 1205 1325 1271 1271 1266 1289 1267 1284 1215 1241 1274 1243 1274 1227 1292 1211 1297 1272 1208 1259 1285 1237 1272 1263 1177 1175 1265 1213 1243 1307 1218 1251 1295 1247 1228 1200 1231 1225 1203 1226 1177 1180 1237 1181 1225 1216 1242 1225 1200 1115 1238 1185 1120 1184 1161 1207 1183 1209 1180 1255 1183 1206 1188 1224 1181 1213 1207 1239 1188 1154 1105 1229 1240 1158 1212 1181 1152 1178 1227 1127 1222 1146 1230 1157 1196 1175 1212 1172 1165 1134 1057 1226 1145 1160 1161 1139 1156 1121 1124 1182 1183 1158 1165 1137 1141 1170 1245 1175 1194 1205 1196 1218 1156 1185 1138 1125 1166 1211 1107 1124 1214 1235 1159 1179 1194 1160 1183 1238 1112 1178 1203 1170 1181 1126 1232 1152 1133 1195 1199 1181 1220 1191 1192 1173 1186 1201 1227 1213 1273 1253 1167 1220 1230 1237 1200 1209 1260 1201 1206 1150 1201 1216 1147 1182 1200 1134 1280 1161 1156 1127 1130 1184 1171 1144 1160 1159 1243 1140 1151 1201 1179 1120 1181 1113 1127 1248 1160 1181 1152 1146 1161 1207 1197 1175 1195 1124 1169 1142 1138 1208 1199 1176 1155 1159 1174 1195 1162 1179 1140 1215 1185 1133 1198 1149 1167 1212 1177 1146 1128 1209 1089 1087 1175 1204 1111 1138 1173 1166 1175 1200 1126 1228 1131 1148 1160 1190 1187 1204 1124 1193 1188 1183 1143 1098 1131 1166 1144 1188 1241 1076 1157 1198 1154 1165 1143 1100 1223 1179 1157 1188 1167 1150 1165 1177 1182 1171 1145 1178 1161 1141 1194 1181 1104 1155 1184 1198 1106 1117 1127 1133 1177 1107 1119 1200 1118 1115 1125 1131 1153 1173 1101 1175 1202 1101 1151 1207 1120 1135 1128 1146 1125 1178 1136 1172 1215 1148 1103 1130 1164 1123 1155 1142 1111 1131 1152 1133 1105 1140 1108 1108 1157 1143 1107 1157 1182 1164 1080 1166 1146 1127 1174 1185 1189 1169 1135 1142 1179 1107 1169 1151 1131 1142 1161 1148 1151 1087 1157 1052 1148 1151 1172 1130 1155 1166 1196 1133 1137 1190 1213 1227 1159 1087 1218 1119 1173 1169 1232 1098 1136 1122 1110 1154 1138 1192 1137 1116 1214 1115 1165 1146 1173 1109 1120 1117 1197 1168 1118 1079 1195 1153 1111 1143 1278 1231 1178 1156 1179 1129 1158 1124 1137 1145 1129 1166 1196 1198 1131 1236 1165 1255 1152 1150 1141 1182 1133 1180 1142 1155 1192 1134 1180 1158 1158 1148 1210 1135 1174 1230 1176 1216 1229 1210 1167 1143 1130 1144 1188 1188 1182 1161 1166 1151 1177 1168 1227 1187 1122 1133 1200 1136 1126 1071 1172 1182 1190 1147 1157 1164 1184 1182 1096 1185 1198 1170 1200 1145 1148 1182 1131 1096 1065 1147 1164 1110 1165 1062 1130 1159 1166 1147 1131 1194 1195 1166 1100 1074 1141 1095 1144 1123 1109 1110 1153 1159 1144 1216 1142 1133 1165 1172 1152 1190 1147 1130 1137 1170 1150 1204 1117 1157 1148 1189 1153 1129 1179 1131 1153 1157 1118 1143 1109 1126 1128 1172 1138 1133 1143 1163 1117 1167 1128 1194 1198 1168 1151 1190 1170 1155 1159 1154 1097 1132 1207 1161 1184 1091 1140 1073 1157 1124 1204 1148 1178 1060 1092 1143 1113 1139 1187 1098 1141 1134 1141 1142 1092 1182 1099 1188 1142 1141 1169 1118 1163 1150 1123 1132 1170 1041 1093 1094 1150 1135 1059 1156 1118 1156 1143 1157 1120 1142 1137 1168 1086 1108 1158 1188 1156 1195 1193 1124 1137 1134 1136 1146 1191 1152 1099 1100 1110 1121 1126 1104 1133 1188 1109 1165 1122 1170 1136 1161 1179 1148 1139 1104 1152 1097 1202 1128 1090 1127 1126 1103 1167 1186 1126 1104 1205 1111 1173 1160 1128 1173 1168 1114 1117 1159 1150 1130 1174 1126 1145 1133 1119 1172 1183 1125 1217 1136 1132 1080 1159 1167 1140 1183 1175 1168 1146 1139 1206 1184 1122 1165 1163 1091 1175 1121 1178 1108 1180 1184 1158 1221 1187 1190 1183 1201 1121 1216 1108 1237 1153 1206 1124 1153 1188 1209 1195 1269 1169 1196 1187 1175 1171 1230 1193 1211 1202 1197 1182 1197 1195 1193 1190 1177 1186 1235 1216 1202 1258 1246 1215 1229 1261 1215 1221 1235 1272 1237 1274 1361 1265 1276 1269 1345 1334 1307 1301 1387 1297 1372 1306 1289 1317 1407 1337 1340 1329 1355 1321 1318 1337 1341 1314 1330 1319 1343 1404 1382 1364 1336 1304 1299 1276 1298 1279 1311 1237 1268 1315 1256 1269 1197 1324 1324 1268 1241 1256 1226 1247 1235 1250 1162 1181 1200 1249 1215 1215 1237 1201 1151 1172 1168 1163 1160 1187 1189 1154 1181 1182 1136 1204 1197 1202 1139 1124 1189 1140 1146 1159 1190 1169 1198 1206 1163 1203 1171 1176 1161 1209 1145 1165 1185 1192 1194 1190 1187 1113 1158 1135 1067 1084 1179 1128 1215 1171 1143 1111 1176 1123 1234 1173 1164 1180 1258 1139 1210 1171 1165 1163 1175 1147 1180 1154 1099 1163 1169 1204 1154 1127 1103 1148 1212 1149 1155 1151 1119 1203 1147 1117 1130 1109 1115 1161 1124 1188 1169 1178 1133 1177 1210 1127 1107 1178 1194 1132 1172 1178 1150 1147 1140 1135 1110 1173 1185 1133 1157 1142 1205 1149 1144 1184 1161 1131 1160 1104 1136 1140 1093 1176 1193 1123 1176 1117 1114 1148 1094 1160 1150 1198 1199 1133 1103 1171 1145 1161 1157 1136 1199 1060 1132 1151 1199 1195 1169 1153 1127 1110 1111 1165 1092 1110 1098 1133 1095 1098 1115 1142 1129 1130 1129 1133 1093 1128 1166 1154 1116 1194 1162 1191 1117 1093 1203 1123 1150 1171 1123 1123 1202 1108 1124 1143 1147 1124 1079 1157 1119 1073 1093 1110 1091 1131 1086 1121 1176 1071 1157 1187 1116 1125 1176 1124 1148 1130 1181 1136 1132 1156 1150 1114 1164 1135 1129 1125 1103 1189 1156 1111 1156 1163 1202 1145 1165 1174 1178 1122 1163 1162 1127 1052 1178 1116 1146 1104 1129 1151 1146 1152 1201 1131 1145 1157 1146 1102 1130 1094 1167 1172 1145 1164 1133 1173 1206 1116 1111 1171 1129 1156 1146 1161 1179 1118 1105 1123 1127 1152 1200 1182 1134 1188 1106 1138 1190 1181 1096 1149 1186 1183 1153 1098 1147 1202 1107 1149 1141 1126 1086 1159 1204 1158 1121 1102 1148 1181 1091 1131 1152 1142 1127 1176 1086 1125 1116 1163 1156 1118 1132 1154 1210 1169 1182 1124 1166 1136 1131 1107 1186 1143 1183 1134 1126 1105 1158 1173 1143 1155 1131 1127 1130 1104 1195 1148 1146 1094 1176 1105 1118 1136 1173 1144 1131 1154 1145 1139 1097 1158 1087 1150 1205 1169 1143 1151 1072 1111 1169 1149 1217 1163 1106 1073 1188 1188 1109 1170 1096 1148 1180 1156 1168 1137 1154 1225 1144 1043 1128 1151 1102 1180 1147 1129 1157 1151 1143 1131 1141 1049 1120 1104 1141 1163 1120 1064 1138 1133 1174 1137 1202 1152 1141 1187 1111 1103 1136 1195 1134 1137 1113 1183 1155 1091 1084 1168 1133 1159 1148 1091 1137 1151 1113 1123 1125 1168 1176 1147 1153 1069 1147 1138 1215 1182 1184 1114 1158 1204 1164 1171 1182 1196 1114 1107 1150 1121 1208 1162 1115 1116 1197 1104 1127 1197 1129 1103 1086 1215 1129 1207 1106 1158 1192 1160 1150 1196 1133 1142 1124 1152 1206 1157 1158 1047 1149 1104 1174 1121 1090 1160 1109 1118 1152 1168 1138 1114 1148 1135 1093 1050 1112 1122 1131 1130 1105 1140 1206 1158 1164 1159 1118 1189 1166 1157 1142 1155 1127 1187 1174 1146 1219 1197 1147 1091 1185 1213 1176 1197 1102 1143 1205 1127 1115 1118 1085 1176 1121 1194 1134 1111 1169 1103 1199 1177 1162 1108 1142 1126 1103 1169 1193 1135 1148 1159 1168 1185 1137 1145 1125 1181 1120 1178 1157 1161 1130 1179 1157 1110 1213 1109 1172 1127 1205 1144 1155 1132 1106 1171 1125 1196 1185 1143 1170 1149 1142 1131 1209 1144 1120 1149 1094 1148 1120 1188 1197 1166 1099 1107 1130 1184 1162 1131 1167 1172 1167 1211 1218 1164 1169 1153 1200 1177 1208 1125 1230 1217 1181 1163 1136 1158 1166 1105 1204 1166 1173 1236 1148 1125 1182 1267 1189 1186 1216 1167 1205 1208 1148 1131 1127 1122 1173 1150 1187 1181 1171 1185 1176 1178 1201 1150 1244 1211 1256 1234 1188 1242 1149 1164 1243 1246 1189 1195 1187 1308 1197 1193 1193 1254 1224 1196 1207 1199 1236 1205 1215 1282 1186 1182 1294 1238 1251 1242 1337 1268 1306 1298 1345 1327 1348 1387 1262 1246 1346 1402 1334 1356 1260 1324 1334 1294 1316 1291 1329 1327 1297 1305 1305 1325 1326 1244 1288 1259 1293 1280 1283 1289 1265 1254 1260 1319 1266 1262 1249 1219 1278 1212 1286 1295 1245 1294 1228 1234 1195 1180 1211 1203 1259 1203 1159 1229 1199 1242 1227 1152 1289 1124 1237 1135 1159 1208 1217 1158 1223 1207 1220 1214 1238 1201 1175 1167 1197 1217 1222 1187 1137 1217 1211 1197 1222 1250 1254 1210 1195 1153 1229 1148 1196 1181 1236 1234 1166 1166 1202 1181 1262 1200 1205 1183 1205 1182 1235 1298 1195 1181 1201 1214 1219 1260 1199 1145 1184 1194 1215 1110 1191 1159 1208 1183 1172 1097 1143 1194 1184 1221 1212 1195 1138 1143 1149 1169 1135 1191 1209 1226 1215 1204 1254 1207 1153 1152 1178 1239 1274 1215 1212 1227 1243 1275 1193 1197 1279 1219 1232 1200 1246 1281 1338 1270 1326 1354 1323 1260 1305 1342 1357 1295 1301 1233 1297 1337 1299 1292 1303 1320 1304 1266 1278 1341 1283 1328 1271 1354 1351 1346 1355 1338 1272 1352 1287 1320 1335 1294 1243 1292 1188 1356 1310 1294 1273 1284 1225 1255 1296 1276 1261 1248 1243 1267 1327 1331 1305 1321 1319 1308 1301 1305 1277 1362 1336 1402 1357 1469 1400 1333 1513 1355 1499 1442 1499 1552 1529 1565 1516 1581 1531 1600 1493 1506 1580 1640 1536 1587 1508 1554 1600 1548 1621 1592 1622 1547 1582 1542 1672 1516 1626 1530 1553 1410 1476 1535 1499 1505 1502 1440 1491 1462 1393 1446 1420 1388 1377 1367 1437 1355 1379 1336 1368 1327 1321 1329 1276 1279 1311 1321 1272 1282 1266 1277 1262 1269 1226 1282 1267 1286 1299 1315 1258 1293 1232 1273 1266 1264 1205 1165 1154 1223 1219 1234 1148 1194 1211 1191 1200 1183 1229 1189 1232 1163 1232 1172 1205 1235 1189 1248 1177 1234 1193 1235 1183 1212 1183 1157 1230 1188 1191 1186 1240 1248 1245 1210 1169 1231 1125 1212 1218 1270 1232 1205 1259 1272 1283 1222 1319 1257 1240 1228 1337 1211 1247 1268 1254 1303 1271 1275 1250 1275 1240 1225 1232 1220 1306 1215 1192 1222 1270 1282 1208 1212 1185 1195 1222 1271 1187 1267 1144 1278 1168 1192 1206 1222 1244 1188 1223 1190 1172 1250 1178 1236 1227 1203 1208 1199 1261 1206 1203 1237 1201 1270 1151 1189 1188 1235 1201 1186 1213 1196 1172 1183 1254 1246 1199 1107 1223 1149 1223 1198 1219 1221 1225 1161 1219 1203 1185 1148 1254 1230 1180 1182 1109 1203 1247 1221 1179 1191 1154 1167 1212 1265 1190 1148 1227 1159 1215 1251 1250 1118 1194 1130 1189 1148 1112 1174 1131 1148 1167 1153 1118 1199 1190 1186 1153 1179 1166 1196 1150 1211 1194 1129 1231 1161 1142 1185 1164 1120 1188 1179 1148 1131 1101 1174 1197 1231 1130 1140 1193 1171 1163 1106 1172 1134 1099 1178 1127 1143 1146 1200 1160 1267 1129 1157 1176 1258 1186 1098 1174 1133 1136 1236 1140 1184 1109 1114 1158 1152 1165 1112 1226 1141 1143 1200 1210 1145 1158 1167 1180 1207 1214 1270 1217 1230 1210 1154 1238 1209 1121 1235 1242 1256 1201 1131 1238 1130 1150 1235 1135 1173 1197 1140 1176 1212 1220 1132 1153 1176 1205 1107 1144 1180 1159 1176 1189 1182 1148 1199 1200 1190 1107 1189 1265 1185 1227 1168 1196 1199 1213 1216 1220 1189 1178 1210 1144 1186 1193 1200 1223 1204 1175 1204 1218 1214 1187 1243 1157 1229 1227 1157 1180 1230 1269 1223 1223 1128 1234 1248 1186 1209 1123 1231 1276 1276 1240 1204 1212 1199 1151 1258 1199 1194 1237 1189 1158 1189 1115 1194 1204 1151 1217 1126 1140 1171 1205 1155 1180 1214 1179 1193 1158 1225 1199 1161 1166 1212 1166 1231 1169 1139 1125 1140 1158 1153 1222 1187 1116 1175 1133 1177 1174 1222 1092 1134 1280 1134 1141 1130 1158 1120 1136 1160 1175 1133 1159 1151 1171 1149 1132 1178 1165 1171 1150 1165 1239 1132 1120 1140 1152 1132 1110 1176 1166 1110 1129 1177 1147 1153 1153 1146 1170 1162 1141 1194 1134 1189 1198 1189 1136 1122 1223 1172 1129 1127 1159 1237 1191 1177 1170 1148 1182 1159 1195 1138 1160 1197 1117 1221 1190 1185 1129 1182 1173 1159 1159 1219 1259 1165 1116 1102 1167 1135 1159 1157 1165 1144 1147 1128 1166 1181 1261 1152 1189 1143 1171 1181 1167 1136 1161 1169 1158 1133 1170 1137 1168 1159 1115 1152 1142 1212 1158 1130 1187 1140 1162 1166 1226 1181 1186 1215 1125 1212 1185 1121 1181 1261 1180 1112 1229 1230 1178 1199 1229 1188 1176 1174 1192 1192 1199 1155 1216 1147 1255 1170 1159 1191 1196 1196 1181 1182 1166 1188 1144 1157 1174 1137 1141 1224 1193 1182 1193 1206 1168 1139 1146 1153 1196 1201 1186 1160 1236 1188 1179 1146 1204 1179 1143 1154 1210 1128 1190 1141 1229 1156 1138 1138 1106 1198 1203 1206 1160 1106 1169 1192 1134 1177 1202 1128 1175 1171 1145 1155 1210 1291 1157 1181 1179 1177 1227 1110 1201 1185 1216 1199 1153 1149 1227 1211 1190 1163 1178 1216 1140 1166 1214 1134 1188 1191 1175 1213 1182 1206 1198 1188 1155 1140 1199 1209 1143 1176 1183 1160 1191 1199 1180 1195 1182 1204 1228 1173 1124 1201 1241 1193 1123 1193 1112 1212 1152 1151 1145 1178 1213 1171 1141 1213 1154 1141 1093 1168 1162 1138 1168 1173 1175 1195 1155 1191 1122 1159 1167 1132 1158 1151 1102 1158 1094 1115 1162 1142 1175 1190 1168 1184 1136 1164 1112 1120 1162 1119 1229 1179 1169 1127 1167 1138 1112 1184 1209 1101 1127 1215 1179 1185 1197 1146 1176 1182 1237 1190 1110 1195 1240 1132 1179 1186 1151 1195 1188 1177 1155 1182 1081 1207 1209 1166 1213 1189 1174 1199 1150 1129 1158 1175 1215 1215 1170 1170 1170 1199 1156 1165 1225 1104 1178 1182 1194 1184 1180 1186 1161 1208 1184 1187 1159 1133 1141 1171 1142 1158 1158 1191 1204 1141 1210 1158 1199 1132 1192 1135 1223 1203 1176 1112 1150 1161 1191 1175 1218 1130 1178 1131 1189 1183 1103 1130 1142 1171 1113 1186 1234 1144 1239 1195 1167 1106 1172 1168 1118 1156 1173 1190 1182 1205 1223 1255 1205 1197 1172 1156 1218 1203 1168 1172 1201 1143 1154 1225 1128 1259 1231 1208 1229 1166 1217 1213 1172 1266 1249 1239 1185 1195 1166 1207 1246 1233 1246 1227 1196 1252 1197 1186 1170 1170 1268 1221 1226 1226 1237 1258 1184 1238 1242 1218 1165 1231 1264 1272 1231 1207 1244 1229 1233 1249 1208 1213 1217 1235 1222 1255 1234 1193 1217 1301 1265 1235 1295 1224 1239 1270 1227 1291 1249 1277 1246 1218 1293 1290 1327 1361 1296 1315 1351 1321 1347 1310 1349 1365 1324 1382 1373 1370 1373 1380 1343 1391 1354 1404 1381 1391 1401 1422 1412 1358 1376 1350 1379 1393 1364 1478 1415 1393 1408 1365 1392 1392 1360 1302 1429 1407 1361 1361 1403 1349 1324 1322 1345 1347 1321 1372 1340 1286 1369 1278 1266 1339 1314 1256 1231 1392 1288 1363 1268 1277 1244 1289 1235 1273 1244 1181 1242 1204 1208 1210 1190 1246 1225 1252 1217 1183 1224 1254 1176 1214 1226 1180 1213 1207 1230 1199 1214 1183 1185 1253 1158 1234 1152 1201 1185 1120 1191 1142 1149 1257 1191 1195 1181 1173 1176 1205 1188 1165 1184 1108 1191 1183 1218 1156 1197 1277 1136 1247 1215 1158 1130 1258 1183 1210 1218 1198 1171 1186 1191 1228 1243 1234 1224 1268 1271 1266 1172 1213 1229 1230 1196 1169 1226 1201 1241 1211 1163 1238 1200 1130 1146 1214 1205 1173 1173 1175 1221 1198 1224 1218 1138 1242 1233 1206 1220 1206 1245 1183 1187 1200 1187 1175 1160 1219 1208 1255 1245 1272 1180 1201 1234 1231 1243 1236 1264 1327 1268 1208 1240 1304 1265 1227 1210 1197 1213 1235 1216 1236 1245 1182 1241 1210 1248 1173 1257 1237 1224 1193 1216 1169 1188 1154 1167 1195 1224 1184 1248 1214 1204 1227 1210 1248 1205 1208 1226 1183 1186 1237 1230 1213 1231 1210 1185 1208 1219 1150 1224 1218 1262 1153 1159 1169 1141 1149 1227 1163 1127 1203 1182 1192 1175 1220 1088 1206 1190 1182 1170 1185 1188 1189 1218 1247 1224 1198 1215 1201 1145 1136 1178 1248 1235 1136 1186 1184 1216 1261 1162 1119 1184 1169 1251 1146 1220 1171 1161 1147 1147 1150 1155 1225 1260 1204 1156 1201 1184 1143 1207 1223 1137 1171 1161 1221 1189 1181 1148 1173 1205 1234 1126 1155 1226 1187 1125 1249 1194 1161 1189 1220 1180 1219 1211 1145 1148 1196 1234 1149 1135 1083 1280 1138 1109 1161 1202 1252 1175 1218 1156 1156 1199 1197 1170 1224 1195 1178 1259 1204 1214 1210 1223 1172 1243 1191 1179 1220 1213 1217 1170 1204 1192 1238 1232 1192 1182 1172 1161 1124 1165 1170 1131 1195 1245 1266 1167 1183 1202 1160 1149 1266 1162 1185 1173 1160 1204 1213 1148 1204 1196 1138 1194 1165 1172 1211 1152 1248 1160 1150 1146 1191 1221 1204 1204 1154 1126 1234 1093 1173 1153 1117 1158 1190 1165 1172 1162 1133 1185 1083 1171 1149 1087 1108 1149 1150 1165 1126 1171 1174 1179 1086 1143 1167 1153 1106 1167 1174 1112 1121 1203 1162 1169 1177 1134 1122 1154 1195 1138 1182 1165 1109 1184 1202 1186 1118 1120 1148 1216 1158 1120 1135 1177 1174 1185 1130 1084 1193 1124 1208 1187 1187 1236 1149 1184 1182 1129 1168 1201 1143 1182 1126 1171 1167 1196 1194 1119 1140 1164 1161 1165 1150 1145 1144 1155 1194 1211 1183 1191 1201 1184 1178 1210 1207 1129 1194 1134 1187 1130 1216 1206 1125 1171 1131 1193 1172 1125 1208 1174 1140 1167 1171 1141 1169 1118 1137 1122 1187 1150 1134 1218 1140 1180 1139</counts>
			</dataPoints>
		</scan>
	</xrdMeasurement>
</xrdMeasurements>
