<?xml version="1.0"?>
<xrdMeasurements xmlns="http://www.xrdml.com/XRDMeasurement/2.3" xmlns:xsi="http://www.w3.org/2001/XMLSchema-instance" xsi:schemaLocation="http://www.xrdml.com/XRDMeasurement/2.3 http://www.xrdml.com/XRDMeasurement/2.3/XRDMeasurement.xsd" status="Completed" recordIdentifier="{F7FBF271-C495-458D-A4C3-864ED51C1A7F}">
	<comment>
		<entry/>
	</comment>
	<sample type="To be analyzed">
		<id>GPSS_Li1p8Mn0p8In0p2Cl4_101325_68ed62dd07cf888582f978b2</id>
		<name></name>
		<preparedBy></preparedBy>
	</sample>
	<xrdMeasurement measurementType="Scan" status="Completed" sampleMode="Reflection">
		<usedWavelength intended="K-Alpha 1">
			<kAlpha1 unit="Angstrom">1.5405980</kAlpha1>
			<kAlpha2 unit="Angstrom">1.5444260</kAlpha2>
			<kBeta unit="Angstrom">1.3922500</kBeta>
			<ratioKAlpha2KAlpha1>0.5000</ratioKAlpha2KAlpha1>
		</usedWavelength>
		<incidentBeamPath>
			<radius unit="mm">145.00</radius>
			<xRayTube id="1010048" name="Empyrean Cu LFF HR (9430 033 7310x)">
				<tension unit="kV">40.0</tension>
				<current unit="mA">15.0</current>
				<anodeMaterial>Cu</anodeMaterial>
				<focus type="Line">
					<length unit="mm">12.0</length>
					<width unit="mm">0.4</width>
					<takeOffAngle unit="deg">6.0</takeOffAngle>
				</focus>
			</xRayTube>
			<sollerSlit id="21010002" name="Soller slits 0.04 rad.">
				<opening unit="rad">0.0400</opening>
			</sollerSlit>
			<mask id="22031000" name="Fixed mask 13 mm">
				<width unit="mm">9.00</width>
			</mask>
			<divergenceSlit id="22120001" name="Divergence slit 1°" xsi:type="fixedDivergenceSlitType">
				<distanceToSample unit="mm">50.00</distanceToSample>
				<height unit="mm">1.52</height>
			</divergenceSlit>
		</incidentBeamPath>
		<sampleMovement xsi:type="spinningSampleMovementType">
			<spinnerRevolutionTime unit="seconds">1.0</spinnerRevolutionTime>
		</sampleMovement>
		<diffractedBeamPath>
			<radius unit="mm">145.00</radius>
			<antiScatterSlit id="22090040" name="AS slit 9 mm (PIXcel)" xsi:type="fixedAntiScatterSlitType">
				<height unit="mm">9.00</height>
			</antiScatterSlit>
			<sollerSlit id="21020003" name="Large Soller slits 0.04 rad.">
				<opening unit="rad">0.0400</opening>
			</sollerSlit>
			<filter id="20030001" name="Large beta-filter Nickel">
				<material>Ni</material>
				<thickness unit="mm">0.020</thickness>
			</filter>
			<detector id="7010019" name="PIXcel1D-Medipix3 detector" xsi:type="rtmsDetectorType">
				<phd unit="keV">
					<lowerLevel>4.02</lowerLevel>
					<upperLevel>11.27</upperLevel>
				</phd>
				<mode>Scanning</mode>
				<activeLength unit="deg">5.542</activeLength>
			</detector>
		</diffractedBeamPath>
		<scan appendNumber="0" mode="Continuous" scanAxis="Gonio" status="Completed">
			<header>
				<startTimeStamp>2025-10-17T15:04:28-07:00</startTimeStamp>
				<endTimeStamp>2025-10-17T15:12:35-07:00</endTimeStamp>
				<author>
					<name>AutomatedUser</name>
				</author>
				<source>
					<applicationSoftware version="1.7b (136)">PANalytical Aeris Instrument Suite</applicationSoftware>
					<instrumentControlSoftware version="3.2.00000000 20240306">AERIS</instrumentControlSoftware>
					<instrumentID>950485</instrumentID>
				</source>
			</header>
			<dataPoints>
				<positions axis="2Theta" unit="deg">
					<startPosition>10.00943322</startPosition>
					<endPosition>99.99442286</endPosition>
				</positions>
				<positions axis="Omega" unit="deg">
					<startPosition>5.00471661</startPosition>
					<endPosition>49.99721143</endPosition>
				</positions>
				<commonCountingTime unit="seconds">12.495</commonCountingTime>
				<counts unit="counts">2815 2876 2920 2844 2888 2905 3021 2837 2876 2898 2957 2984 2847 2898 2914 2912 2965 2845 2888 2943 2940 2951 2876 2969 2964 3009 3036 3006 2991 3048 2986 2976 2884 2975 2871 3009 2921 3042 2967 2956 3018 2925 2958 3069 3155 2931 3012 3088 2991 2980 3009 3076 2977 3039 3028 3032 3013 2916 3078 2951 2988 3082 3140 3142 3135 3219 3147 3116 2985 3119 3068 3097 3095 3093 3079 3074 3236 3037 3064 2992 3113 3134 3081 3096 3134 3139 3034 3054 3062 3093 3042 3152 3069 3034 3079 3156 3133 3117 3224 3214 3139 3212 3193 3292 3159 3160 3154 3098 3201 3286 3129 3214 3118 3276 3252 3203 3208 3201 3149 3152 3308 3157 3269 3270 3187 3200 3249 3112 3185 3256 3208 3176 3206 3195 3317 3121 3228 3272 3205 3223 3235 3180 3167 3172 3217 3195 3218 3317 3230 3245 3265 3221 3176 3337 3373 3171 3205 3292 3326 3257 3247 3322 3291 3252 3172 3243 3279 3247 3144 3316 3197 3292 3235 3237 3241 3132 3262 3317 3258 3232 3159 3142 3140 3206 3182 3228 3177 3303 3287 3200 3328 3131 3231 3224 3234 3194 3125 3161 3123 3234 3219 3343 3167 3201 3250 3206 3304 3156 3211 3192 3167 3291 3135 3219 3068 3128 3186 3212 3220 3260 3098 3191 3142 3110 3158 3154 3114 3147 3099 3094 3115 3185 3148 3164 3122 3045 3071 3230 3034 3133 3231 3127 3192 3126 3124 3147 3040 3140 3063 3001 3056 3135 3146 3066 3125 3139 3166 3127 3097 3128 2987 3100 3122 3068 3043 3138 3135 3109 3175 3068 3129 3099 3145 3122 3138 3193 3045 3105 3046 3160 3171 3080 3159 3193 3183 3193 3019 3022 3033 3131 3169 3153 3152 3095 3086 3156 3041 3142 3122 3081 3185 3067 3161 3115 3133 3205 3238 3168 3167 3028 3209 3077 3155 3202 3038 3164 3251 3184 3259 3161 3197 3214 3247 3090 3165 3264 3152 3262 3183 3138 3171 3233 3273 3289 3239 3326 3269 3267 3173 3301 3268 3187 3315 3278 3269 3246 3357 3251 3283 3264 3288 3210 3350 3381 3377 3205 3306 3438 3320 3409 3303 3370 3418 3406 3323 3373 3334 3455 3419 3338 3354 3386 3444 3396 3388 3401 3460 3449 3417 3443 3372 3483 3508 3473 3440 3444 3456 3508 3517 3465 3408 3619 3538 3415 3522 3482 3620 3617 3634 3654 3580 3801 3655 3734 3780 3786 3840 3933 4017 4059 4212 4219 4138 4154 4157 4356 4307 4145 4115 4164 4048 4108 4037 3920 3820 3928 3940 3866 3851 3886 3865 3901 3844 3884 3885 3835 3865 3835 3801 3967 4012 3782 3780 3798 3804 3720 3845 3829 3775 3851 3779 3807 3660 3887 3808 3834 3818 3870 3726 3774 3671 3713 3776 3680 3706 3679 3650 3551 3576 3557 3635 3577 3525 3502 3529 3444 3478 3405 3475 3375 3462 3447 3477 3323 3437 3369 3369 3315 3407 3287 3199 3345 3186 3241 3305 3262 3245 3266 3275 3245 3226 3416 3255 3262 3268 3424 3165 3285 3167 3272 3185 3299 3282 3216 3275 3240 3237 3248 3112 3148 3154 3109 3199 3219 3050 3210 3151 3166 3164 3079 3142 3016 3191 3088 3167 3156 3212 3116 3082 3075 3051 3041 3053 3043 3168 3153 3023 3066 2997 2992 3062 3102 3170 3037 2930 3095 3009 3000 3042 2957 2929 3077 2957 3055 3024 3010 2899 3032 2932 3015 3020 3031 2987 2897 3092 2904 2901 2967 2950 2901 2960 2985 2966 2888 2918 2941 2828 2856 2974 2874 2991 2943 2928 2940 2943 3001 2881 2927 2887 2991 2840 2924 2908 2909 2963 2932 2962 2888 2814 2959 2878 2982 2886 2824 2959 2978 2903 2950 2946 2871 2820 2813 2873 2897 2866 2835 2986 2837 2854 2784 2866 2803 2853 2839 2768 2832 2870 2849 2881 2897 2828 2924 2868 2706 2874 2897 2821 2877 2812 2931 2803 2767 2795 2790 2777 2750 2876 2856 2859 2837 2791 2786 2885 2767 2773 2730 2744 2862 2861 2859 2783 2846 2812 2724 2911 2799 2689 2808 2757 2761 2740 2834 2680 2754 2792 2847 2789 2717 2799 2833 2731 2769 2774 2702 2795 2768 2816 2751 2747 2675 2807 2781 2777 2716 2774 2748 2733 2906 2745 2732 2776 2767 2769 2799 2742 2704 2696 2696 2814 2710 2760 2645 2821 2868 2672 2690 2729 2704 2787 2788 2720 2711 2701 2736 2788 2680 2739 2749 2728 2716 2863 2727 2742 2805 2743 2676 2814 2687 2757 2669 2718 2738 2763 2671 2694 2804 2818 2701 2707 2756 2705 2613 2733 2788 2670 2713 2662 2779 2733 2666 2659 2646 2755 2626 2804 2703 2728 2671 2613 2695 2674 2694 2656 2745 2718 2655 2615 2684 2762 2644 2708 2721 2690 2717 2648 2714 2633 2668 2700 2706 2701 2720 2631 2635 2715 2697 2690 2656 2678 2686 2730 2735 2628 2655 2674 2617 2639 2739 2632 2596 2714 2713 2626 2593 2652 2547 2725 2706 2599 2628 2542 2592 2584 2665 2619 2585 2647 2604 2694 2573 2587 2567 2685 2618 2548 2606 2635 2578 2637 2543 2587 2541 2589 2575 2531 2551 2555 2563 2613 2594 2531 2490 2614 2528 2527 2651 2561 2580 2518 2669 2550 2553 2536 2665 2583 2436 2549 2569 2565 2536 2606 2490 2613 2625 2431 2570 2402 2582 2511 2595 2573 2493 2505 2501 2540 2539 2496 2494 2457 2487 2554 2544 2512 2560 2646 2534 2503 2558 2546 2514 2645 2426 2465 2433 2512 2454 2517 2460 2467 2489 2532 2473 2508 2376 2534 2437 2522 2485 2466 2496 2507 2516 2451 2466 2502 2430 2448 2471 2475 2378 2438 2445 2285 2598 2381 2442 2377 2409 2424 2394 2415 2409 2367 2370 2380 2428 2496 2476 2449 2377 2476 2382 2413 2430 2416 2434 2305 2448 2442 2417 2426 2416 2424 2446 2364 2398 2339 2395 2392 2430 2355 2457 2419 2409 2398 2390 2446 2457 2417 2374 2454 2378 2539 2522 2400 2527 2391 2476 2397 2409 2466 2443 2387 2490 2473 2369 2456 2434 2389 2431 2381 2451 2356 2428 2462 2400 2461 2374 2415 2485 2456 2465 2493 2405 2445 2406 2437 2353 2461 2476 2446 2375 2482 2433 2467 2447 2439 2381 2416 2401 2384 2466 2463 2410 2421 2462 2426 2452 2509 2487 2466 2457 2450 2443 2481 2441 2416 2449 2400 2345 2397 2513 2473 2427 2404 2368 2483 2413 2438 2399 2440 2423 2432 2396 2422 2494 2429 2463 2466 2432 2483 2484 2503 2386 2405 2528 2323 2404 2457 2364 2447 2438 2468 2420 2457 2443 2348 2397 2445 2358 2394 2451 2391 2375 2295 2488 2443 2384 2397 2404 2394 2415 2376 2360 2425 2327 2341 2440 2401 2414 2328 2325 2336 2354 2293 2411 2314 2284 2298 2315 2342 2334 2326 2310 2290 2346 2282 2247 2333 2330 2350 2313 2237 2196 2309 2276 2243 2358 2270 2246 2269 2332 2215 2348 2246 2283 2271 2243 2223 2190 2264 2190 2121 2190 2232 2134 2215 2174 2187 2214 2198 2277 2221 2230 2121 2142 2236 2111 2268 2248 2181 2227 2191 2192 2148 2201 2082 2119 2140 2160 2096 2073 2193 2092 2035 2118 2073 2116 2012 2112 2069 2141 1982 2019 1990 2184 2085 2046 2009 2024 2021 2053 2045 2069 1982 2081 1916 2050 2102 1955 2006 2084 1986 1960 2023 1994 1956 1874 2038 1986 1929 2003 1990 2013 1978 1947 1993 1930 2079 1960 1955 1947 1869 1920 1948 1922 1897 1902 1909 1919 1878 1884 1846 1889 1929 1928 1975 1877 1872 1813 1814 1787 1932 1934 1891 1783 1798 1863 1911 1807 1828 1905 1858 1810 1775 1841 1826 1914 1827 1793 1809 1804 1861 1816 1782 1845 1833 1857 1902 1845 1800 1798 1728 1787 1730 1788 1833 1771 1795 1774 1744 1751 1840 1756 1798 1772 1757 1735 1805 1734 1806 1843 1736 1765 1759 1778 1827 1758 1774 1808 1765 1802 1781 1733 1759 1822 1751 1747 1737 1750 1752 1784 1742 1713 1739 1684 1840 1612 1770 1719 1798 1831 1738 1764 1793 1793 1801 1733 1718 1788 1739 1648 1785 1764 1759 1680 1719 1733 1673 1739 1697 1774 1687 1734 1620 1691 1746 1624 1717 1728 1740 1698 1640 1640 1696 1647 1639 1674 1635 1670 1706 1751 1680 1704 1752 1722 1696 1763 1677 1630 1666 1780 1705 1779 1723 1727 1767 1757 1673 1716 1717 1698 1651 1699 1753 1716 1719 1757 1757 1727 1763 1677 1697 1739 1709 1658 1741 1770 1743 1789 1821 1725 1693 1790 1731 1718 1729 1705 1716 1695 1644 1705 1753 1748 1668 1644 1719 1816 1738 1589 1716 1663 1700 1726 1652 1775 1633 1703 1669 1770 1675 1715 1765 1681 1695 1667 1697 1635 1676 1720 1735 1638 1750 1748 1679 1699 1645 1758 1710 1692 1687 1707 1682 1673 1695 1715 1615 1736 1720 1693 1701 1679 1802 1634 1715 1745 1641 1631 1739 1589 1679 1686 1644 1695 1699 1684 1661 1716 1641 1717 1650 1620 1690 1618 1697 1717 1698 1722 1695 1646 1688 1599 1668 1680 1736 1644 1607 1588 1668 1658 1729 1666 1606 1732 1619 1615 1643 1666 1662 1586 1643 1574 1546 1633 1660 1678 1501 1561 1641 1662 1568 1575 1580 1560 1598 1547 1523 1619 1559 1517 1594 1540 1648 1513 1588 1550 1562 1585 1485 1562 1439 1562 1531 1588 1538 1537 1537 1560 1454 1521 1464 1506 1490 1590 1475 1469 1533 1479 1521 1446 1526 1461 1577 1527 1408 1498 1441 1477 1534 1452 1469 1446 1467 1514 1440 1455 1426 1392 1456 1431 1450 1507 1363 1452 1474 1406 1437 1462 1466 1417 1469 1418 1380 1426 1356 1452 1413 1380 1396 1468 1450 1300 1430 1430 1401 1438 1407 1440 1388 1402 1421 1407 1360 1384 1371 1378 1333 1345 1383 1365 1434 1343 1371 1310 1350 1418 1424 1481 1369 1445 1434 1444 1421 1488 1524 1545 1557 1591 1712 1689 1679 1814 1669 1746 1880 1812 1818 1766 1707 1646 1631 1632 1581 1512 1521 1588 1522 1584 1428 1466 1445 1459 1428 1430 1456 1440 1396 1387 1435 1419 1370 1418 1428 1441 1363 1364 1341 1413 1377 1405 1434 1344 1287 1284 1397 1338 1334 1312 1342 1317 1310 1348 1252 1338 1265 1358 1254 1330 1297 1201 1253 1237 1300 1276 1282 1236 1239 1255 1230 1196 1278 1267 1207 1130 1194 1223 1245 1233 1189 1118 1233 1161 1233 1201 1204 1243 1209 1156 1198 1231 1183 1258 1223 1184 1190 1261 1199 1179 1220 1190 1207 1205 1231 1259 1268 1341 1384 1343 1390 1397 1494 1549 1720 1634 1809 1897 2072 2093 2251 2228 2332 2205 2252 2140 2174 2172 2142 2070 1938 1797 1792 1728 1737 1680 1673 1542 1562 1485 1464 1544 1382 1465 1339 1396 1368 1361 1404 1449 1389 1400 1427 1338 1426 1458 1417 1438 1473 1515 1431 1441 1463 1504 1531 1563 1482 1468 1531 1422 1479 1541 1537 1544 1604 1484 1629 1531 1475 1448 1422 1394 1382 1427 1346 1329 1259 1311 1278 1256 1219 1228 1210 1140 1160 1178 1113 1135 1144 1154 1155 1109 1097 1083 1141 1097 1172 1036 1182 1089 1107 1140 1159 1148 1129 1121 1138 1153 1126 1152 1117 1087 1148 1064 1058 1111 1091 1149 1019 1084 1086 1024 1029 1082 1034 1113 1054 1071 1049 1047 1048 1038 1067 1066 1071 1025 999 1009 973 1058 1052 974 1045 1033 958 1028 987 994 995 996 1040 1101 1003 1003 1006 973 1013 999 977 1047 973 957 986 985 1008 1013 1028 1008 962 969 940 897 937 947 994 986 915 979 987 922 1006 945 962 956 995 951 995 936 962 942 923 1012 978 1028 915 985 959 976 952 950 945 955 923 914 994 920 942 921 971 921 920 860 924 913 946 986 934 939 909 937 918 961 932 913 973 936 899 911 927 877 994 954 946 907 951 915 875 887 874 902 906 915 916 979 956 921 870 956 924 964 925 935 956 928 876 903 837 919 904 900 896 861 862 899 887 850 876 896 925 905 922 908 880 940 856 911 962 947 924 918 997 949 991 932 930 940 1023 981 994 944 1011 985 990 952 961 916 981 994 1020 995 955 960 913 980 954 984 947 961 914 979 900 951 860 926 950 845 876 904 855 922 868 920 877 840 868 849 892 885 876 851 940 900 944 883 807 873 869 865 898 876 904 884 899 860 868 876 817 854 848 864 916 855 857 829 859 837 910 873 865 849 881 920 863 868 880 896 866 831 924 887 872 849 843 789 834 870 844 882 848 881 915 882 821 867 921 824 894 931 859 887 841 867 869 881 907 930 827 853 858 895 900 916 862 845 871 817 886 922 939 888 906 906 857 911 880 948 900 912 944 946 938 1004 946 1014 1052 1047 1104 1076 1159 1221 1249 1382 1482 1559 1690 1931 2206 2469 2757 3073 3285 3883 3773 4213 4085 4325 4029 4002 3641 3775 3679 3713 3544 3402 3215 3105 2760 2633 2426 2242 2175 2005 2027 1862 1887 1861 1688 1659 1547 1541 1550 1543 1495 1469 1499 1466 1385 1530 1447 1517 1440 1482 1353 1448 1438 1459 1422 1402 1328 1371 1298 1258 1269 1301 1232 1232 1244 1242 1190 1177 1156 1180 1209 1182 1229 1217 1197 1180 1212 1176 1180 1182 1162 1072 1154 1082 1102 1080 1051 1041 1063 1013 1020 945 1010 922 951 964 924 884 982 852 862 932 871 877 890 820 853 784 812 873 778 874 887 871 847 879 817 865 865 849 812 825 871 813 769 826 887 820 839 851 830 840 825 832 833 809 817 841 782 841 756 782 801 779 762 772 816 783 750 826 809 808 845 775 792 787 788 776 856 808 740 780 794 784 802 855 794 763 814 799 775 741 802 757 830 787 799 775 795 787 840 769 818 784 808 739 784 783 749 784 761 791 795 783 740 773 716 788 760 768 783 786 774 797 724 749 770 786 753 757 790 703 747 805 774 720 788 741 750 759 751 737 818 765 770 742 746 761 743 682 740 838 719 760 733 786 757 772 716 804 809 752 774 716 747 707 728 739 756 769 749 787 713 793 757 751 780 740 736 690 734 750 762 737 658 716 744 739 723 755 698 738 738 730 713 739 727 758 720 745 819 734 718 741 762 719 690 743 762 718 694 762 738 686 691 726 705 749 746 758 742 768 740 769 724 733 793 776 702 812 758 735 749 762 747 764 741 709 776 684 765 743 732 700 753 733 710 736 741 719 709 725 743 697 700 698 675 682 685 688 695 716 674 695 719 663 687 667 684 645 668 734 668 654 668 692 715 683 725 767 658 711 702 715 732 712 695 680 650 694 676 730 719 678 650 684 677 634 684 722 682 676 681 675 707 713 685 677 649 672 681 674 669 682 666 716 691 637 665 699 674 710 648 649 663 648 695 652 665 684 662 710 644 699 672 702 619 667 690 641 692 661 683 611 622 659 662 685 669 676 661 660 650 696 702 685 674 652 668 676 595 684 676 710 639 654 648 637 680 667 666 629 666 615 650 590 648 670 635 662 644 661 679 634 648 631 611 708 661 598 678 646 649 648 688 658 672 684 646 695 634 589 667 635 663 632 635 654 624 660 641 655 620 660 630 651 620 674 675 596 702 660 655 627 646 642 666 628 670 656 678 658 726 684 659 608 661 625 662 660 644 676 643 631 663 675 673 657 678 671 637 683 646 585 645 640 633 658 626 655 594 633 659 667 597 577 606 602 658 645 652 640 611 619 620 625 617 597 596 615 605 621 667 654 656 620 634 614 647 641 651 621 601 618 644 664 571 641 586 640 644 635 650 676 629 643 597 634 649 642 627 617 631 674 616 646 578 580 601 621 613 616 651 601 602 600 655 640 630 609 622 606 577 636 598 661 600 608 637 610 621 634 586 618 592 650 627 657 647 656 659 665 638 608 623 647 623 613 653 621 607 659 619 607 619 632 627 615 626 651 630 616 664 626 597 610 621 639 662 631 583 635 563 598 650 587 608 598 629 604 662 612 650 583 602 569 605 580 612 582 632 634 576 628 609 615 676 638 660 621 604 626 605 605 586 621 591 628 596 613 641 654 662 636 634 624 590 608 612 572 644 646 629 618 628 634 576 613 612 623 648 608 617 602 633 655 628 637 603 573 618 606 585 590 571 605 557 601 559 568 624 633 622 676 653 629 666 613 590 602 647 567 578 604 602 608 641 571 619 620 625 594 589 605 570 609 579 635 579 610 575 607 647 591 641 646 603 599 559 582 580 571 551 614 574 572 600 625 590 614 596 581 608 608 571 579 587 606 614 631 588 589 624 613 572 595 589 577 663 621 612 567 599 606 611 623 584 570 551 639 579 613 574 605 646 583 554 561 585 614 587 572 573 597 600 545 595 552 605 640 605 579 591 586 574 566 605 563 585 615 594 571 608 622 606 570 575 582 580 607 601 616 590 585 589 560 598 578 592 622 569 620 618 599 592 564 613 570 604 600 608 580 632 525 604 585 582 568 608 560 579 551 550 585 549 603 539 552 595 562 573 565 537 589 578 565 569 586 613 573 621 535 608 573 542 610 586 563 604 623 644 632 595 613 563 558 623 562 607 568 631 650 622 689 582 599 622 626 606 614 571 589 593 604 590 558 564 591 596 556 581 577 605 555 572 565 606 590 557 617 585 605 520 616 618 616 605 628 599 610 583 577 542 549 579 548 588 588 618 601 610 582 629 595 603 662 636 688 723 718 718 786 832 875 864 820 875 844 778 763 764 790 738 775 762 795 747 770 779 716 687 715 628 683 683 674 658 641 641 622 635 627 620 606 613 608 669 617 622 545 619 598 598 586 643 621 627 608 612 639 599 565 636 609 586 579 597 560 558 631 560 585 568 584 527 588 560 594 568 567 576 554 530 542 581 580 566 562 541 534 526 527 518 540 526 589 525 543 568 551 586 547 524 598 561 576 552 553 568 574 573 588 576 532 548 550 538 568 570 505 562 527 574 531 560 546 564 531 554 568 510 536 508 550 480 551 524 559 550 564 547 539 562 535 549 544 550 523 509 527 544 535 547 538 514 546 505 589 543 542 563 561 495 493 487 554 519 547 532 529 584 534 515 579 514 565 503 533 524 518 533 549 538 553 570 532 561 545 537 552 540 561 523 557 553 497 504 582 475 573 544 519 534 541 570 534 554 530 547 564 549 537 507 543 551 568 517 507 580 528 501 495 546 523 515 524 532 487 532 541 523 530 534 506 537 549 515 519 497 539 553 547 499 537 533 521 542 554 562 544 550 564 538 558 557 565 561 520 520 553 479 509 547 562 557 529 528 539 517 532 560 532 610 528 508 499 537 526 495 535 553 483 518 498 509 557 557 508 531 558 498 558 540 526 489 523 528 557 510 522 558 518 542 535 555 540 582 509 534 550 514 530 529 530 495 505 540 538 505 518 522 544 545 503 498 512 523 528 539 550 560 485 568 555 511 551 562 538 548 579 522 501 542 572 552 478 548 570 559 581 530 545 538 524 567 560 495 593 579 522 591 524 602 574 563 538 529 574 598 543 541 515 565 537 554 540 596 581 542 622 588 577 602 579 621 583 568 660 653 621 651 711 752 750 833 908 999 1099 1303 1295 1471 1604 1752 1671 1770 1707 1582 1582 1543 1591 1474 1507 1454 1480 1524 1466 1464 1516 1374 1397 1169 1090 1060 1068 1054 1043 1012 976 902 921 940 890 840 791 815 753 795 761 806 776 774 781 734 717 741 781 740 720 669 665 691 656 603 632 625 667 621 576 586 593 644 574 604 535 537 543 528 546 504 529 479 541 551 520 554 496 548 556 542 546 525 538 526 544 535 525 505 524 535 527 494 559 565 559 549 549 599 583 586 600 576 573 569 596 549 551 581 584 576 521 568 617 573 544 594 570 566 543 579 551 563 594 509 560 524 541 577 485 552 521 515 505 552 541 518 534 518 528 505 548 555 527 504 487 514 518 493 524 524 499 521 477 525 487 506 490 500 496 507 504 497 538 521 488 482 474 516 519 534 478 522 515 519 490 530 482 498 525 462 515 539 509 496 490 522 487 504 465 512 519 503 488 519 487 524 494 527 507 486 536 500 500 530 483 491 503 511 514 513 508 490 519 535 529 529 534 539 528 549 561 576 550 613 594 602 643 603 635 572 603 591 620 590 602 591 628 596 607 640 599 589 577 557 529 525 561 577 560 511 550 515 482 523 509 497 508 574 525 499 487 533 506 501 490 560 501 507 472 506 503 515 516 499 483 513 466 490 507 495 505 461 539 438 480 462 488 458 475 495 481 499 460 508 458 490 469 481 424 484 498 476 463 466 476 491 448 455 417 440 439 466 462 496 465 466 455 452 497 462 511 497 476 427 446 486 507 475 465 491 523 477 482 427 444 471 481 479 489 497 468 413 475 459 457 450 440 479 484 470 465 485 492 490 464 451 456 500 460 489 482 473 504 481 442 454 488 436 463 480 459 502 465 494 492 515 457 457 489 492 420 458 488 442 488 441 451 444 495 476 482 454 431 468 492 447 476 453 476 449 479 449 445 448 460 435 491 430 496 442 476 438 457 443 477 470 426 456 478 463 444 439 482 463 460 444 454 464 443 472 440 451 453 449 473 426 422 451 453 468 432 477 450 455 435 449 434 427 455 456 475 439 475 435 472 394 435 453 461 452 496 474 475 461 441 439 461 467 462 474 422 463 457 465 466 452 432 413 456 426 466 441 443 446 462 437 465 453 460 396 464 435 467 448 445 457 469 415 481 458 407 463 428 423 477 474 431 474 457 461 435 461 457 457 434 463 436 458 483 444 410 438 444 435 405 441 425 463 434 404 476 443 484 464 473 483 480 440 444 411 448 492 486 463 461 398 470 442 429 493 398 455 452 431 442 455 452 432 400 426 461 447 429 426 446 456 448 433 448 458 431 447 413 444 458 437 439 434 437 450 463 427 467 451 424 453 478 434 420 432 464 459 440 410 437 410 431 426 423 427 426 454 435 416 442 461 449 411 400 407 461 412 444 433 481 384 444 431 425 437 452 457 390 470 416 437 463 439 432 457 434 433 434 434 454 414 446 452 428 423 417 459 420 428 454 405 446 420 448 462 438 396 441 434 429 443 441 408 445 414 451 405 435 424 429 452 431 459 411 456 446 433 420 435 421 425 439 407 449 418 411 431 436 454 421 458 413 452 425 391 425 416 425 453 466 383 396 414 430 388 388 404 407 436 463 447 409 430 460 431 455 447 386 451 442 429 445 433 379 441 425 428 443 410 438 420 437 404 405 387 408 425 382 429 399 436 431 422 428 419 402 425 425 406 396 418 483 428 414 409 416 443 437 420 401 430 438 487 437 440 415 408 403 416 418 421 406 413 441 443 427 428 438 436 410 421 416 443 481 441 469 426 461 458 511 476 476 415 423 444 453 414 415 403 427 449 443 468 473 485 443 457 437 447 451 423 397 407 379 459 416 435 444 416 424 422 441 402 446 446 467 424 450 430 444 426 395 387 401 408 387 419 414 418 435 439 433 415 462 443 436 449 472 466 473 471 487 556 499 573 557 573 627 562 593 575 543 564 531 516 517 527 545 560 543 540 556 598 511 564 537 507 491 473 482 535 491 483 477 475 488 483 451 462 437 458 426 450 457 443 448 448 396 400 460 429 457 423 389 410 438 439 402 441 418 424 412 444 439 459 403 408 393 430 443 444 431 432 422 426 425 406 408 474 428 408 389 422 417 393 399 406 407 413 430 427 426 420 377 452 428 424 421 440 450 403 413 391 400 441 417 410 355 424 405 396 431 452 427 430 454 451 447 401 439 463 453 457 474 485 458 477 459 433 455 447 469 443 476 452 464 441 465 458 446 442 418 425 393 401 408 422 461 452 433 433 424 410 432 421 397 455 429 428 436 398 399 419 442 458 442 393 439 427 414 395 403 461 389 412 418 412 438 422 403 416 388 389 403 417 408 378 388 420 386 417 428 410 400 400 416 402 420 397 433 394 419 353 425 404 397 414 396 410 403 412 409 399 380 404 419 399 387 419 419 443 431 449 373 401 401 409 392 423 385 428 380 378 428 433 381 435 433 421 428 398 416 387 405 421 415 425 423 445 425 426 389 404 433 455 420 461 446 437 496 480 524 461 519 572 572 638 624 733 717 760 685 742 756 667 675 621 611 589 622 567 599 649 613 648 609 621 637 616 609 600 552 573 545 559 509 512 480 481 490 494 504 502 460 484 477 452 427 461 458 459 451 459 459 419 458 437 408 411 434 449 430 411 406 407 424 406 386 417 388 380 405 398 387 368 434 411 403 393 379 436 399 375 387 385 419 401 365 383 371 371 344 366 407 391 374 377 384 356 372 409 363 398 394 369 387 345 382 411 395 398 420 395 417 426 405 418 374 398 385 402 374 417 420 399 397 409 436 357 405 390 400 397 436 375 443 408 395 460 411 446 425 383 406 440 413 394 406 389 395 386 399 428 433 433 373 391 390 386 411 403 398 355 398 370 428 410 399 398 404 405 403 383 389 403 387 362 396 406 361 382 399 369 401 364 389 396 363 365 363 394 387 380 375 398 416 406 433 436 435 459 467 456 477 445 457 452 425 450 430 437 415 406 417 393 417 426 470 428 422 422 405 473 458 433 438 425 440 419 403 416 412 407 396 429 375 407 383 385 375 373 414 394 410 362 448 343 380 395 405 402 391 401 378 403 409 359 348 386 366 407 369 382 373 377 384 373 393 378 351 370 397 365 345 392 390 352 311 354 377 352 393 369 414 367 379 334 358 349 413 398 388 363 348 371 340 354 355 388 354 386 368 389 356 359 377 379 400 380 366 385 343 336 351 409 351 355 390 406 350 375 390 391 366 369 355 404 376 375 383 371 388 372 345 398 428 375 398 420 372 357 362 340 390 386 391 325 370 382 385 370 415 369 369 385 351 377 382 364 382 416 366 403 342 385 363 333 328 367 368 392 336 387 392 332 395 345 361 370 373 368 368 392 349 362 374 403 343 370 387 347 371 359 403 380 345 346 333 360 357 382 333 422 354 368 387 378 344 372 380 363 370 348 396 358 357 376 371 379 363 362 400 329 376 399 350 336 381 385 391 362 377 364 330 376 344 418 370 369 378 365 344 344 370 355 365 360 365 361 378 377 356 361 382 380 358 366 376 352 374 372 383 373 370 365 364 385 364 352 366 369 373 363 356 339 348 352 336 349 336 368 374 337 373 358 392 361 360 346 345 361 380 396 372 341 366 351 364 332 356 321 358 361 337 346 366 352 365 369 379 351 358 322 361 382 357 365 357 357 349 359 337 319 378 348 359 369 393 358 379 364 349 382 372 386 376 341 352 327 390 367 367 376 352 358 384 344 400 394 366 377 375 418 343 369 376 386 390 366 360 369 366 378 345 359 330 363 349 348 366 368 365 367 371 344 342 369 354 376 388 377 339 343 361 365 371 351 325 363 373 360 375 386 367 400 332 376 370 351 353 346 376 340 349 384 338 345 363 382 356 354 344 378 333 368 348 356 336 375 391 335 341 328 348 339 342 364 362 354 375 339 353 314 344 351 389 398 359 398 369 338 374 357 389 354 376 332 380 327 372 330 360 372 367 368 354 348 358 350 374 365 371 381 374 377 372 352 378 338 396 345 348 332 376 388 347 395 369 355 322 361 382 367 340 344 340 350 365 371 383 356 363 363 394 345 386 401 431 398 424 403 412 398 401 395 382 368 368 366 381 405 376 378 396 370 373 408 398 376 420 405 370 356 331 378 384 377 361 361 352 335 388 350 377 361 367 360 361 384 377 367 360 358 359 352 372 374 330 324 360 363 355 370 330 372 340 360 337 346 320 343 374 352 368 389 380 347 363 370 347 360 362 360 367 378 349 358 329 357 360 351 342 349 385 362 356 391 322 373 357 348 346 338 350 337 369 339 324 321 320 329 371 365 378 367 345 337 369 365 368 352 331 387 326 388 346 386 376 370 399 357 377 376 363 352 347 330 384 354 361 355 358 358 322 340 346 391 334 372 384 374 343 357 372 336 352 357 360 365 366 378 372 373 369 366 369 362 405 386 333 366 360 321 369 353 346 332 324 342 386 327 351 343 381 365 351 339 325 351 328 363 342 365 370 339 369 343 362 372 355 387 376 343 339 353 375 365 338 361 365 354 340 351 346 369 366 339 368 355 333 358 357 370 334 359 356 370 348 306 375 357 365 325 381 351 350 353 358 359 326 361 348 323 356 348 336 349 334 352 345 342 334 354 347 324 357 361 341 336 323 338 373 353 357 344 373 330 363 358 366 326 347 360 345 357 357 379 353 360 338 365 358 363 367 338 386 359 360 328 334 340 384 364 366 332 342 331 361 379 380 352 380 388 379 413 404 431 407 415 406 445 459 543 581 543 597 535 522 484 476 486 423 444 453 486 442 435 437 453 423 468 442 478 474 455 467 469 408 422 414 429 406 410 399 381 392 413 405 382 358 377 367 396 354 373 417 388 373 354 350 345 338 356 348 378 359 344 361 343 351 393 369 343 347 344 331 343 339 349 338 371 370 358 388 355 341 377 340 328 356 373 332 338 349 326 346 355 362 372 345 324 366 403 339 340 396 332 330 369 335 392 330 382 344 359 305 350 329 357 350 369 344 348 354 385 339 338 368 349 358 362 355 340 367 338 372 383 359 377 353 353 366 347 365 362 316 349 319 314 320 334 380 333 368 348 354 365 372 346 337 374 348 334 377 384 326 363 337 305 341 369 391 381 341 344 369 338 359 366 390 353 361 367 336 381 374 332 366 357 319 376 373 403 370 327 357 356 335 384 325 356 328 384 360 340 367 307 356 336 357 328 308 338 352 382 365 337 372 355 346 375 370 372 392 348 364 396 342 343 387 364 353 346 352 371 300 372 371 344 335 370 330 353 363 327 358 345 336 346 369 333 347 371 349 340 367 344 371 338 346 330 372 370 357 376 360 356 345 348 355 365 350 349 332 362 364 356 358 355 327 364 394 309 365 372 321 369 343 349 329 361 365 345 345 329 330 351 355 363 315 376 336 351 367 330 349 348 333 350 321 325 331 359 332 347 332 343 342 397 320 339 347 355 328 367 333 348 361 321 374 343 376 370 367 361 334 333 359 336 361 382 325 342 318 340 376 347 349 333 349 387 341 343 394 338 343 363 352 348 368 361 339 380 339 357 344 355 339 330 341 360 366 371 384 334 351 334 347 348 342 323 351 337 328 384 368 336 369 363 334 369 345 348 341 396 343 348 369 355 370 337 336 315 357 366 357 335 367 335 353 331 341 358 376 350 346 326 345 355 340 345 373 350 337 330 330 370 341 346 350 408 303 357 348 343 381 314 342 372 352 354 368 334 412 346 349 343 361 357 338 339 353 336 333 353 378 327 369 344 368 306 343 333 347 364 329 295 351 327 393 355 345 374 349 353 340 317 334 345 335 374 373 347 373 366 352 346 331 333 358 368 320 368 332 350 315 315 325 344 340 342 381 352 311 363 319 355 327 324 374 324 348 358 327 365 347 373 324 346 336 376 354 342 360 412 348 359 329 339 341 349 367 370 368 360 360 384 349 367 340 366 352 330 339 332 364 334 362 335 341 314 340 360 348 392 329 366 319 382 319 360 367 331 377 346 333 340 360 340 368 352 362 336 360 356 347 315 359 340 398 358 320 363 372 375 355 355 324 373 301 365 314 354 335 342 337 382 350 379 394 362 349 339 326 334 314 387 363 367 348 352 413 368 390 370 356 360 357 354 374 337 343 342 333 379 366 378 351 343 353 359 359 328 377 347 310 384 346 341 372 346 364 361 367 412 342 326 354 358 397 359 329 344 378 368 403 376 419 411 344 386 392 358 386 403 375 387 380 370 374 359 372 385 374 420 361 387 356 347 388 355 352 362 396 382 395 377 384 358 361 350 363 365 411 374 401 362 371 346 341 394 395 375 346 425 403 349 372 381 361 367 403 397 397 373 397 435 379 411 374 399 353 391 391 413 413 359 385 383 447 348 349 352 370 359 385 371 388 366 364 386 398 372 362 399 386 408 375 376 354 425 407 375 376 362 391 354 371 365 358 388 375 327 391 349 391 338 362 339 362 382 332 366 362 351 364 386 356 357 393 356 357 389 335 357 358 327 348 340 348 379 354 362 378 356 377 348 337 361 384 356 329 374 338 369 381 327 363 378 377 343 372 354 349 358 365 344 369 330 364 361 366 386 376 383 380 392 392 334 368 360 364 335 402 363 345 391 357 358 335 378 365 351 341 382 374 378 390 339 319 364 344 377 372 353 361 353 381 369 347 368 349 381 350 397 365 398 372 356 381 349 362 386 367 361 358 379 343 399 331 370 385 371 359 362 410 359 385 385 365 344 365 368 370 354 390 370 380 371 393 370 380 371 374 391 431 393 418 403 386 360 435 409 389 411 373 395 391 424 363 404 355 378 402 418 345 367 399 389 391 395 403 439 389 457 424 428 440 412 447 479 477 520 491 586 648 599 680 657 700 673 677 601 620 557 576 525 501 500 514 473 474 486 481 534 525 524 580 536 534 560 539 532 578 533 520 526 491 478 467 471 433 427 413 424 411 404 396 394 399 440 406 377 379 402 383 353 374 346 394 380 396 343 378 398 395 371 362 390 365 361 384 380 376 363 351 349 385 354 344 357 341 369 350 348 371 376 359 327 371 361 398 384 377 336 372 324 374 354 378 348 379 365 368 395 330 363 332 342 354 391 339 347 333 354 347 336 357 347 375 360 348 353 397 380 385 315 342 319 359 380 357 362 334 369 367 335 355 391 348 333 367 361 372 344 362 333 368 372 351 323 313 380 328 351 346 348 356 364 349 353 313 345 361 362 359 362 371 353 353 335 374 348 394 362 379 388 387 380 422 390 394 376 416 360 392 382 398 377 411 372 386 371 353 402 398 382 405 368 354 344 406 367 430 373 352 384 389 396 413 391 345 362 380 362 401 358 373 371 367 345 357 354 354 372 360 350 319 358 341 367 334 378 352 380 391 375 369 359 347 371 328 360 323 371 361 366 294 344 341 368 324 377 345 346 345 364 390 327 383 319 321 336 350 342 386 304 339 321 352 328 397 352 356 335 338 358 333 331 328 332 319 356 348 332 347 308 354 346 348 328 352 359 338 335 372 314 317 390 340 337 325 366 373 344 344 338 343 321 372 350 348 355 311 353 346 344 348 366 312 373 315 333 343 368 336 312 362 340 326 343 299 326 350 351 363 388 337 337 389 336 373 337 353 351 330 351 329 317 329 329 335 336 298 386 293 345 330 365 362 343 353 360 347 341 312 322 330 344 338 326 355 342 329 348 342 359 330 313 348 324 301 324 374 307 354 311 313 331 345 351 309 328 359 351 329 352 367 298 316 323 342 334 341 311 316 341 357 322 348 354 332 340 322 347 329 316 336 332 333 331 344 369 336 348 322 355 348 336 336 316 324 348 347 331 314 315 361 309 329 359 315 334 315 334 354 338 337 324 328 295 331 352 338 339 315 294 322 366 319 332 344 294 346 342 300 346 337 322 345 302 320 363 323 327 303 344 329 349 350 339 360 334 339 304 310 349 337 330 328 313 338 337 339 321 336 336 289 328 340 338 337 345 326 364 328 321 331 306 368 334 351 318 330 335 344 295 324 348 366 332 350 305 365 311 327 331 352 345 340 319 359 340 353 348 319 361 340 343 315 326 335 335 324 374 349 365 332 316 297 300 335 324 329 343 311 327 346 353 369 331 336 350 342 360 347 300 325 329 323 318 317 340 326 312 322 345 327 341 346 306 330 339 359 337 304 321 336 341 344 327 365 356 325 356 338 325 335 325 346 361 340 344 336 357 341 337 316 348 327 351 312 314 367 352 324 339 344 342 314 341 341 341 342 346 336 394 335 348 340 333 306 370 355 376 378 351 365 315 361 350 302 359 343 326 326 375 353 363 336 322 361 342 355 352 323 336 342 397 341 322 348 329 353 325 349 339 340 360 309 356 319 348 354 307 360 329 309 349 337 338 338 291 341 365 343 318 331 332 343 323 338 335 351 330 331 376 339 330 306 323 322 287 300 332 335 307 330 347 326 289 318 320 314 314 349 318 320 348 311 331 347 327 348 312 348 313 314 315 329 356 357 333 293 326 320 342 323 292 338 334 327 314 333 324 303 321 331 326 347 358 356 338 316 312 324 327 349 348 329 320 349 296 318 297 306 314 297 294 335 320 332 336 305 326 357 314 360 304 332 347 363 306 331 292 339 319 338 342 312 348 361 359 314 318 340 340 330 314 308 311 329 326 316 336 311 307 282 352 327 315 347 326 306 318 358 326 311 323 309 327 353 383 325 334 306 322 315 329 339 320 324 331 316 329 309 365 300 325 306 318 354 332 331 324 322 309 339 309 342 319 310 321 342 313 348 348 340 352 313 292 350 322 315 291 341 334 315 327 367 367 348 297 317 307 310 313 346 318 331 352 329 318 296 345 343 342 345 308 333 338 353 349 363 309 331 310 320 311 334 337 323 331 347 321 374 321 360 354 369 390 392 407 428 393 431 440 443 475 457 415 481 440 456 431 440 410 418 408 401 394 359 400 408 362 377 395 401 387 372 420 373 389 366 418 399 371 373 408 415 388 371 409 395 415 398 351 347 375 369 386 342 386 344 351 322 341 337 345 324 352 357 355 328 346 357 339 333 323 369 327 326 374 322 335 319 323 345 357 344 352 328 350 315 309 339 359 320 326 323 306 313 338 323 319 364 294 312 329 318 314 304 328 295 344 323 315 349 335 325 358 313 359 344 337 303 381 383 314 334 314 334 307 327 333 295 318 305 325 338 367 320 317 323 333 321 324 294 306 325 300 331 307 328 336 352 356 293 304 336 347 334 325 341 325 305 299 316 324 318 326 317 305 335 321 332 325 325 282 316 299 335 340 338 320 322 347 328 334 329 371 337 331 338 363 360 321 326 356 323 330 348 327 315 338 302 316 340 316 322 340 322 345 303 332 350 364 373 318 345 346 327 305 327 320 320 349 312 320 347 355 316 340 309 331 380 329 339 328 311 300 343 339 306 344 334 354 318 306 335 349 299 306 285 332 323 361 319 291 305 300 331 318 369 330 330 322 322 300 319 283 326 296 340 315 351 277 333 303 298 305 350 332 344 303 299 343 298 309 325 314 302 316 301 300 311 358 295 280 310 305 300 311 320 365 311 336 323 351 299 357 344 312 326 305 335 336 321 297 272 308 326 327 334 332 327 349 324 274 324 313 315 300 330 311 308 337 303 317 338 323 332 325 336 291 308 308 355 349 333 334 322 290 310 311 308 322 296 319 349 300 375 331 314 338 299 326 318 329 324 310 313 317 309 322 320 306 325 317 324 334 323 320 303 321 349 302 344 302 321 321 315 311 322 314 318 310 349 310 285 329 322 307 325 299 336 339 317 335 314 307 318 297 302 311 306 305 340 338 302 320 325 334 317 321 285 303 339 292 320 324 333 320 306 305 326 298 323 293 344 315 305 301 327 316 294 347 289 307 323 327 351 316 290 301 294 311 276 328 326 327 323 359 345 313 330 315 316 304 285 335 308 320 323 362 317 296 322 299 316 331 326 326 317 267 322 324 312 301 302 323 348 302 304 327 286 333 315 322 310 285 329 346 344 308 308 316 322 310 271 339 344 321 326 348 318 314 307 314 336 326 338 296 319 292 309 287 327 310 356 307 341 334 314 323 287 337 309 327 329 352 350 292 340 298 331 318 310 306 312 297 318 322 370 292 295 297 323 308 343 334 326 319 322 307 293 291 306 311 303 309 285 303 302 300 303 317 287 330 322 297 301 315 287 312 322 329 314 316 322 306 334 302 315 307 332 312 337 306 309 298 350 321 316 278 332 313 341 311 324 293 321 326 303 324 308 283 311 303 320 310 345 297 307 313 298 347 318 338 311 334 325 314 314 333 316 291 342 361 350 333 338 345 324 384 316 364 358 357 347 319 358 358 359 348 354 364 372 319 337 345 336 349 316 307 349 353 366 340 319 321 305 311 350 346 302 338 317 336 362 330 380 347 330 324 341 345 338 330 352 315 357 344 322 362 367 323 321 344 339 336 318 333 320 357 338 312 364 290 354 304 343 323 338 334 347 337 267 328 329 320 350 312 331 353 322 334 321 339 338 319 312 322 317 342 342 317 330 309 351 335 342 317 298 328 316 316 327 322 311 353 335 309 308 333 313 310 300 323 306 304 345 324 325 302 300 303 343</counts>
			</dataPoints>
		</scan>
	</xrdMeasurement>
</xrdMeasurements>
