<?xml version="1.0"?>
<xrdMeasurements xmlns="http://www.xrdml.com/XRDMeasurement/2.3" xmlns:xsi="http://www.w3.org/2001/XMLSchema-instance" xsi:schemaLocation="http://www.xrdml.com/XRDMeasurement/2.3 http://www.xrdml.com/XRDMeasurement/2.3/XRDMeasurement.xsd" status="Completed" recordIdentifier="{BACF4608-591F-4921-9DB8-661C3B801BC9}">
	<comment>
		<entry/>
	</comment>
	<sample type="To be analyzed">
		<id>GPSS_Li1p45Mn0p45Sc0p55Cl4_122325_694ae824ae15af25ac372774</id>
		<name></name>
		<preparedBy></preparedBy>
	</sample>
	<xrdMeasurement measurementType="Scan" status="Completed" sampleMode="Reflection">
		<usedWavelength intended="K-Alpha 1">
			<kAlpha1 unit="Angstrom">1.5405980</kAlpha1>
			<kAlpha2 unit="Angstrom">1.5444260</kAlpha2>
			<kBeta unit="Angstrom">1.3922500</kBeta>
			<ratioKAlpha2KAlpha1>0.5000</ratioKAlpha2KAlpha1>
		</usedWavelength>
		<incidentBeamPath>
			<radius unit="mm">145.00</radius>
			<xRayTube id="1010048" name="Empyrean Cu LFF HR (9430 033 7310x)">
				<tension unit="kV">40.0</tension>
				<current unit="mA">15.0</current>
				<anodeMaterial>Cu</anodeMaterial>
				<focus type="Line">
					<length unit="mm">12.0</length>
					<width unit="mm">0.4</width>
					<takeOffAngle unit="deg">6.0</takeOffAngle>
				</focus>
			</xRayTube>
			<sollerSlit id="21010002" name="Soller slits 0.04 rad.">
				<opening unit="rad">0.0400</opening>
			</sollerSlit>
			<mask id="22031000" name="Fixed mask 13 mm">
				<width unit="mm">9.00</width>
			</mask>
			<divergenceSlit id="22120001" name="Divergence slit 1°" xsi:type="fixedDivergenceSlitType">
				<distanceToSample unit="mm">50.00</distanceToSample>
				<height unit="mm">1.52</height>
			</divergenceSlit>
		</incidentBeamPath>
		<sampleMovement xsi:type="spinningSampleMovementType">
			<spinnerRevolutionTime unit="seconds">1.0</spinnerRevolutionTime>
		</sampleMovement>
		<diffractedBeamPath>
			<radius unit="mm">145.00</radius>
			<antiScatterSlit id="22090040" name="AS slit 9 mm (PIXcel)" xsi:type="fixedAntiScatterSlitType">
				<height unit="mm">9.00</height>
			</antiScatterSlit>
			<sollerSlit id="21020003" name="Large Soller slits 0.04 rad.">
				<opening unit="rad">0.0400</opening>
			</sollerSlit>
			<filter id="20030001" name="Large beta-filter Nickel">
				<material>Ni</material>
				<thickness unit="mm">0.020</thickness>
			</filter>
			<detector id="7010019" name="PIXcel1D-Medipix3 detector" xsi:type="rtmsDetectorType">
				<phd unit="keV">
					<lowerLevel>4.02</lowerLevel>
					<upperLevel>11.27</upperLevel>
				</phd>
				<mode>Scanning</mode>
				<activeLength unit="deg">5.542</activeLength>
			</detector>
		</diffractedBeamPath>
		<scan appendNumber="0" mode="Continuous" scanAxis="Gonio" status="Completed">
			<header>
				<startTimeStamp>2025-12-25T18:49:28-08:00</startTimeStamp>
				<endTimeStamp>2025-12-25T18:57:36-08:00</endTimeStamp>
				<author>
					<name>AutomatedUser</name>
				</author>
				<source>
					<applicationSoftware version="1.7b (136)">PANalytical Aeris Instrument Suite</applicationSoftware>
					<instrumentControlSoftware version="3.2.00000000 20240306">AERIS</instrumentControlSoftware>
					<instrumentID>950485</instrumentID>
				</source>
			</header>
			<dataPoints>
				<positions axis="2Theta" unit="deg">
					<startPosition>10.00943322</startPosition>
					<endPosition>99.99442286</endPosition>
				</positions>
				<positions axis="Omega" unit="deg">
					<startPosition>5.00471661</startPosition>
					<endPosition>49.99721143</endPosition>
				</positions>
				<commonCountingTime unit="seconds">12.495</commonCountingTime>
				<counts unit="counts">2793 2821 2784 2772 2907 2883 2810 2789 2847 2826 2751 2892 2788 2935 2846 2852 2796 2802 2792 2853 2810 2710 2869 2815 2786 2904 2801 2822 2851 2875 2855 2806 2793 2726 2985 2729 2801 2826 2809 2878 2881 2812 2806 2830 2751 2828 2780 2761 2809 2842 2799 2823 2821 2778 2801 2802 2888 2756 2817 2831 2792 2973 2949 2897 2867 2772 2869 2832 2866 2917 2916 2759 2953 2939 2903 2892 2838 2894 2793 2958 2901 2809 2866 2889 2918 2925 2923 2805 2962 2972 2898 2872 2862 2953 3005 2976 2834 2891 2859 2744 2851 2877 2873 2842 2859 2937 2846 2874 2894 2891 2785 2802 2852 2732 2904 2891 2893 2830 2907 2916 2859 2852 2739 2797 2844 2795 2752 2750 2907 2891 2841 2884 2847 2893 2814 2874 2859 2792 2934 2873 2832 2895 2893 2840 2874 2836 2928 2798 2990 2890 2869 2848 2720 2973 2895 2851 2920 2824 2939 2854 2830 2841 2792 2921 2815 2802 2720 2792 2937 2836 2844 2711 2733 2888 2835 2860 2852 2863 2824 2898 2837 2722 2890 2850 2830 2844 2786 2718 2814 2866 2839 2741 2834 2766 2735 2743 2791 2679 2747 2687 2827 2717 2759 2768 2723 2724 2796 2654 2780 2739 2759 2774 2743 2722 2749 2775 2751 2736 2717 2592 2697 2658 2739 2710 2716 2790 2699 2722 2685 2721 2694 2710 2647 2676 2662 2696 2741 2671 2874 2735 2796 2680 2721 2741 2667 2636 2663 2671 2738 2604 2703 2609 2586 2705 2662 2721 2624 2750 2542 2688 2615 2725 2704 2652 2684 2707 2635 2638 2661 2612 2641 2659 2618 2638 2659 2621 2584 2669 2613 2621 2617 2594 2642 2620 2627 2627 2536 2674 2563 2515 2693 2580 2590 2607 2652 2583 2586 2613 2613 2631 2684 2603 2727 2605 2625 2640 2624 2608 2664 2630 2646 2629 2654 2707 2640 2692 2689 2589 2643 2782 2684 2756 2639 2697 2733 2658 2673 2839 2716 2688 2655 2561 2730 2632 2733 2637 2633 2743 2679 2679 2647 2744 2633 2660 2725 2637 2665 2722 2718 2715 2839 2647 2735 2733 2762 2739 2696 2668 2839 2740 2835 2832 2818 2835 2833 2789 2727 2804 2823 2785 2768 2942 2780 2820 2761 2862 2783 2836 2692 2760 2903 2972 2807 2814 2872 2906 2796 2904 2822 2888 2914 2866 2893 2912 3055 2937 2881 2919 2895 2913 2916 2850 3009 2823 2962 2995 2906 2958 3069 2984 2981 2997 2925 3014 2876 3072 3088 3043 3162 3085 3074 3059 3115 3195 3135 3189 3133 3339 3171 3243 3320 3205 3216 3301 3265 3254 3262 3281 3353 3275 3225 3275 3254 3314 3255 3197 3263 3280 3302 3246 3344 3298 3392 3295 3341 3300 3449 3416 3397 3459 3465 3549 3506 3568 3686 3630 3695 3818 3768 3898 3860 3828 4080 3996 3990 3927 3987 3906 3978 3904 3915 3658 3860 3681 3624 3561 3592 3366 3451 3391 3236 3374 3270 3370 3264 3295 3189 3181 3172 3112 2989 3106 3104 2962 2940 2894 2894 2893 2869 2901 2854 2920 2915 2876 2956 2853 2889 2832 2852 2846 2711 2836 2824 2797 2784 2792 2750 2803 2718 2764 2781 2682 2708 2756 2824 2790 2793 2671 2683 2837 2815 2793 2750 2718 2698 2721 2710 2766 2759 2710 2767 2765 2705 2657 2640 2705 2708 2685 2804 2638 2609 2640 2687 2581 2779 2737 2613 2638 2662 2640 2578 2656 2671 2664 2546 2681 2700 2715 2651 2567 2638 2613 2659 2651 2625 2574 2626 2585 2648 2618 2515 2634 2638 2595 2601 2647 2518 2484 2606 2597 2570 2517 2596 2563 2488 2531 2530 2493 2455 2499 2518 2557 2579 2488 2509 2492 2485 2504 2385 2540 2501 2479 2510 2463 2398 2307 2325 2484 2483 2457 2438 2508 2458 2409 2415 2458 2465 2418 2502 2495 2477 2478 2457 2468 2401 2424 2456 2403 2449 2351 2353 2435 2444 2444 2397 2394 2396 2386 2410 2358 2380 2458 2416 2493 2332 2430 2455 2394 2358 2543 2351 2436 2339 2268 2401 2352 2360 2392 2349 2421 2323 2389 2423 2382 2391 2325 2370 2384 2366 2270 2339 2402 2345 2344 2448 2360 2389 2375 2394 2318 2379 2321 2326 2353 2352 2315 2361 2394 2320 2346 2471 2336 2391 2351 2381 2401 2294 2289 2358 2331 2316 2366 2360 2338 2347 2410 2313 2421 2420 2398 2246 2434 2342 2350 2333 2231 2406 2302 2406 2351 2458 2233 2445 2405 2370 2373 2263 2420 2312 2334 2371 2255 2406 2364 2288 2327 2355 2308 2423 2363 2296 2315 2457 2393 2348 2386 2390 2296 2273 2254 2235 2331 2289 2307 2306 2250 2307 2215 2282 2280 2277 2337 2241 2243 2313 2263 2247 2265 2258 2243 2377 2242 2254 2234 2208 2333 2132 2265 2294 2225 2303 2307 2221 2375 2279 2269 2252 2179 2205 2214 2268 2221 2273 2309 2205 2258 2308 2189 2183 2229 2274 2178 2211 2164 2262 2176 2191 2309 2224 2215 2330 2230 2237 2283 2173 2311 2243 2220 2298 2150 2236 2189 2275 2179 2146 2229 2178 2202 2203 2194 2164 2131 2227 2145 2198 2207 2154 2138 2198 2128 2128 2189 2205 2243 2165 2169 2254 2268 2134 2180 2180 2143 2158 2152 2145 2124 2137 2136 2238 2180 2196 2177 2175 2128 2226 2165 2190 2157 2231 2181 2104 2114 2148 2138 2062 2121 2128 2089 2113 2068 2147 2131 2112 2193 2096 2085 2081 2090 2129 2141 2169 2212 2131 2089 2086 2091 2172 2126 2139 2214 2165 2212 2145 2169 2104 2125 2142 2138 2074 2106 2108 2203 2127 2144 2102 2151 2050 2136 2109 2068 2066 2152 2080 2137 2092 2090 2114 2090 2151 2090 2217 2152 2168 2119 2129 2045 2101 2067 2101 2103 2134 2124 2032 2108 2134 2090 2098 2050 2100 2114 2088 1997 2072 2114 2062 2059 1962 1965 2016 2024 2025 2089 2030 1975 2022 2006 2008 1969 2036 2021 1968 2072 2008 2092 1955 1994 1960 2025 2036 1942 2077 2049 2049 1995 2054 2027 2019 2047 2068 1925 1980 2160 2025 2086 2022 2045 1935 2085 2056 2120 1971 2071 1944 2058 2060 2048 2096 2094 2028 2104 2032 2087 1991 2037 2089 2088 1908 2047 2045 1903 1973 2010 1990 2074 1950 1976 2048 2017 1910 2048 2032 1965 2035 2006 2015 1982 1957 1997 2003 2067 2062 2071 2006 2124 2081 1965 1987 2033 2048 1922 1938 1984 2013 2073 1995 2009 2109 2047 2048 1919 2055 2035 1996 1963 2032 2089 2037 1952 1939 2075 1978 1984 2069 2009 1945 2023 2067 1948 2043 2082 2059 2101 2047 1945 2020 1944 1983 1923 1991 1986 2027 2037 1980 1974 2009 2024 1984 2065 1953 2029 1968 1971 2029 1988 1984 1969 1976 1963 2024 2069 1993 2031 2013 1993 2002 1995 1936 1987 1986 2015 2000 2053 1957 1888 1925 1884 1983 1919 1898 1943 1897 1985 1985 1982 1944 1951 1949 1899 1847 1957 1904 1961 1939 1876 1893 1857 1966 1853 1917 1908 1937 1955 1910 1861 1943 1879 1867 1921 1838 1840 1896 1879 1889 1824 1849 1888 1842 1935 1794 1874 1788 1886 1776 1793 1794 1788 1842 1873 1831 1780 1876 1831 1849 1804 1781 1828 1841 1753 1767 1801 1754 1706 1755 1776 1767 1777 1738 1678 1780 1728 1762 1757 1761 1758 1772 1696 1677 1735 1737 1640 1729 1727 1685 1656 1738 1732 1819 1717 1720 1711 1679 1657 1717 1688 1629 1708 1755 1690 1641 1663 1620 1615 1677 1657 1670 1674 1564 1613 1591 1650 1584 1629 1701 1552 1693 1616 1683 1612 1604 1635 1701 1626 1637 1638 1567 1590 1637 1583 1565 1612 1572 1626 1567 1572 1556 1653 1645 1506 1619 1536 1520 1552 1506 1570 1617 1523 1574 1508 1506 1578 1572 1551 1487 1444 1560 1481 1445 1488 1478 1522 1475 1558 1453 1513 1476 1525 1504 1524 1442 1447 1440 1420 1453 1494 1463 1504 1463 1509 1461 1548 1516 1484 1446 1428 1489 1488 1454 1504 1494 1496 1458 1506 1508 1409 1477 1464 1482 1388 1416 1413 1553 1464 1438 1467 1489 1497 1411 1405 1404 1433 1430 1408 1439 1362 1466 1398 1446 1465 1479 1426 1407 1499 1429 1383 1420 1481 1427 1443 1403 1408 1426 1502 1378 1398 1454 1413 1446 1447 1426 1427 1373 1375 1479 1434 1459 1458 1458 1429 1434 1441 1438 1443 1413 1489 1479 1434 1427 1409 1427 1374 1331 1441 1442 1425 1401 1455 1461 1423 1478 1435 1503 1421 1399 1534 1418 1452 1482 1432 1447 1457 1459 1481 1388 1455 1428 1340 1430 1446 1395 1457 1389 1490 1440 1485 1474 1414 1483 1425 1361 1481 1428 1457 1360 1446 1425 1440 1400 1391 1441 1443 1436 1386 1429 1432 1428 1409 1452 1339 1438 1399 1455 1500 1494 1456 1396 1437 1433 1487 1406 1467 1482 1433 1436 1501 1452 1440 1438 1398 1385 1476 1401 1394 1495 1447 1496 1500 1416 1431 1422 1475 1408 1427 1480 1445 1417 1457 1433 1425 1485 1386 1474 1453 1417 1413 1463 1431 1457 1386 1473 1382 1394 1483 1374 1428 1449 1399 1469 1437 1433 1399 1404 1454 1434 1438 1356 1358 1412 1409 1413 1417 1458 1428 1437 1412 1333 1414 1379 1423 1428 1380 1359 1324 1340 1396 1299 1334 1325 1373 1325 1357 1366 1308 1351 1325 1392 1365 1360 1321 1382 1336 1391 1319 1364 1369 1315 1310 1307 1340 1348 1285 1340 1284 1343 1334 1314 1285 1334 1296 1204 1248 1294 1294 1350 1343 1267 1364 1311 1304 1285 1285 1239 1304 1251 1243 1235 1251 1260 1201 1256 1259 1258 1210 1272 1278 1270 1261 1212 1236 1228 1238 1241 1195 1226 1289 1232 1236 1191 1252 1291 1189 1233 1260 1257 1190 1204 1197 1196 1156 1190 1193 1218 1210 1284 1170 1176 1227 1202 1230 1130 1234 1217 1176 1209 1188 1268 1158 1168 1217 1177 1235 1220 1151 1221 1195 1220 1183 1209 1186 1175 1138 1261 1255 1270 1303 1189 1306 1291 1281 1331 1185 1255 1250 1249 1225 1269 1257 1279 1232 1239 1217 1202 1170 1181 1152 1170 1250 1242 1216 1279 1229 1264 1251 1267 1304 1279 1214 1277 1323 1372 1332 1407 1388 1404 1462 1439 1394 1441 1429 1430 1408 1412 1385 1407 1334 1282 1346 1240 1272 1236 1307 1197 1156 1154 1134 1138 1130 1121 1118 1112 1119 1011 1058 1095 1055 1095 1075 1028 1023 1070 1066 978 1088 1016 1061 1047 1059 985 1065 1061 992 1077 982 1038 1025 1025 1008 1058 1060 962 1044 1023 1040 1010 1023 1070 1051 1061 1114 1084 1033 1038 1073 1077 1069 1165 1161 1128 1178 1242 1209 1376 1300 1312 1390 1493 1452 1586 1464 1531 1492 1479 1554 1558 1535 1506 1412 1489 1409 1542 1415 1461 1482 1410 1468 1521 1439 1485 1579 1652 1582 1647 1663 1717 1773 1775 1889 1963 2086 1989 2088 2083 2163 2324 2358 2406 2389 2409 2424 2510 2481 2381 2382 2387 2344 2311 2244 2177 2082 2051 2013 2014 1971 1866 1884 1803 1759 1768 1660 1715 1672 1607 1563 1517 1540 1473 1446 1459 1404 1353 1286 1245 1259 1161 1208 1152 1187 1073 1066 1063 1064 1041 1024 998 1007 1021 967 961 957 934 883 876 922 943 894 892 873 891 870 876 859 878 883 867 859 885 893 874 880 844 830 887 885 861 917 906 847 851 853 875 926 819 860 862 921 848 827 834 840 858 879 903 843 813 814 919 839 850 804 894 846 836 793 837 820 813 836 814 878 840 838 874 810 835 809 892 797 847 856 823 853 828 843 828 871 825 834 810 845 835 896 851 810 856 822 790 787 849 828 818 805 818 792 806 815 759 843 778 814 772 836 783 838 814 785 784 729 769 819 849 813 816 756 767 798 816 800 838 800 820 819 793 813 776 792 850 836 840 756 808 789 776 779 773 801 817 806 783 830 788 798 774 852 810 735 801 755 797 787 836 765 831 805 827 774 786 784 752 770 802 811 761 806 818 803 775 784 777 803 759 733 731 787 788 774 785 760 805 770 787 728 749 799 809 789 771 766 780 790 757 740 746 802 706 736 797 699 802 727 765 760 739 787 819 808 794 708 731 736 792 791 794 798 761 722 735 761 773 769 698 763 757 752 728 721 759 766 734 768 747 745 714 745 806 731 751 743 719 748 712 723 713 779 745 744 805 744 751 728 725 745 793 716 758 727 759 759 745 722 703 770 780 788 725 729 741 703 790 746 726 701 701 770 709 823 718 781 793 781 773 726 773 768 753 776 773 819 801 784 806 822 790 781 769 797 782 811 796 811 796 808 786 806 875 792 849 822 771 796 812 800 775 845 781 770 800 826 822 838 903 811 835 821 912 902 894 953 887 898 960 978 1002 1065 1110 1100 1184 1324 1372 1477 1547 1631 1785 1918 2003 2098 2157 2179 2179 2147 2211 2160 2050 2067 2139 2050 2078 1992 1990 2005 1908 1924 1869 1953 1949 2001 2126 2063 2202 2231 2429 2537 2624 2702 2998 3185 3378 3494 3718 3760 4060 4212 4309 4525 4663 4833 4847 5237 5149 5206 5074 4991 4810 4760 4504 4477 4049 3866 3575 3420 3208 2899 2765 2451 2220 2105 1849 1744 1646 1531 1391 1374 1294 1215 1138 1098 1108 999 912 938 947 884 829 917 801 838 811 841 809 830 748 818 794 766 800 753 749 707 751 752 731 706 741 804 719 707 712 708 783 704 712 706 773 697 776 701 716 715 727 699 655 717 698 723 752 705 665 654 716 671 735 689 703 653 716 688 739 688 697 727 717 737 684 739 708 749 664 769 637 722 711 729 678 691 701 714 715 697 663 696 652 719 689 709 676 686 727 644 687 692 731 680 699 683 663 665 705 728 720 706 729 691 741 682 698 690 689 689 660 666 650 686 682 709 669 715 653 696 677 711 731 687 671 685 701 712 697 642 698 724 675 697 696 711 682 690 723 669 728 682 727 659 693 687 724 709 717 679 705 668 684 728 726 672 656 651 625 688 651 659 672 673 662 681 676 652 632 643 694 687 651 652 679 669 674 672 641 673 664 643 726 678 699 670 673 660 677 641 665 659 636 601 674 698 678 683 667 651 653 704 657 669 664 648 694 708 675 654 655 670 681 634 668 725 722 642 682 648 677 658 687 635 689 681 685 719 664 696 696 674 617 679 631 649 680 625 648 651 677 702 667 680 638 652 623 695 674 686 652 688 659 639 667 648 688 673 674 670 665 681 713 722 692 675 646 670 692 642 679 671 720 717 673 682 644 605 679 686 669 731 660 677 643 615 613 583 641 641 614 636 634 635 644 611 615 607 633 563 590 611 654 629 643 604 596 621 621 632 646 658 607 575 638 642 601 645 592 601 629 618 599 598 640 603 604 620 575 610 595 592 635 585 606 640 614 615 645 638 596 555 599 621 577 591 609 568 616 639 568 577 575 673 645 610 542 595 618 602 617 598 619 596 622 595 597 605 542 609 575 612 652 604 587 580 615 592 637 565 598 579 591 590 602 590 631 603 618 585 565 580 605 571 583 576 621 561 544 582 599 643 607 582 612 583 572 594 569 596 609 587 605 591 590 548 583 569 607 593 608 562 613 585 563 622 606 612 602 633 624 566 561 582 559 601 582 591 608 606 591 592 597 574 595 600 581 603 566 601 605 577 565 598 582 593 590 550 590 561 570 578 555 554 560 593 543 538 571 606 550 564 597 580 546 539 582 604 572 615 528 584 582 577 545 563 580 548 584 548 573 514 564 561 604 563 601 547 590 568 575 580 517 609 555 645 539 568 586 563 561 569 596 552 562 576 557 570 563 556 616 603 549 591 613 528 613 597 607 529 554 592 619 615 609 621 533 577 593 585 589 576 592 552 572 567 580 611 524 586 570 573 541 573 592 613 623 561 597 601 588 613 559 551 553 561 611 611 578 566 587 590 520 573 587 600 557 529 583 556 552 569 556 597 592 613 537 604 557 597 563 541 529 579 572 547 522 582 598 592 571 560 582 553 600 523 588 584 586 549 554 577 608 578 565 602 590 587 567 550 563 597 568 582 569 564 604 557 563 573 551 552 565 537 579 604 558 568 611 554 582 616 586 601 539 537 584 590 544 608 552 572 521 587 609 556 592 576 593 625 526 490 539 548 586 582 560 524 495 560 576 607 563 545 589 547 593 541 570 551 599 627 525 555 567 538 590 567 605 563 598 557 550 600 533 546 533 572 553 604 544 540 552 566 562 569 583 587 537 552 528 527 577 570 544 584 615 582 567 557 595 592 536 546 655 564 582 645 571 572 567 533 542 531 599 615 546 604 549 544 593 561 571 574 605 561 538 571 613 557 599 577 564 558 589 605 580 577 603 597 592 610 591 612 639 593 604 566 580 615 560 589 550 535 606 566 586 536 581 553 586 551 557 574 573 613 565 555 522 551 577 565 574 560 560 559 579 532 598 566 521 573 555 525 564 560 567 570 616 508 615 561 591 579 552 528 517 510 556 586 595 602 619 514 558 564 613 526 558 611 604 612 610 563 585 574 596 572 554 578 585 570 599 586 563 602 585 594 587 531 616 530 577 563 518 555 536 584 525 540 542 546 577 553 563 548 577 484 541 572 520 601 516 573 569 533 562 533 540 561 603 537 547 574 542 555 512 591 537 580 530 526 582 526 593 538 567 578 581 587 586 573 532 543 580 546 537 564 596 551 541 600 589 558 585 576 582 598 635 571 587 593 592 588 611 615 652 595 606 611 601 662 622 684 702 713 656 664 687 646 675 651 704 695 682 639 656 693 710 687 726 644 661 723 673 738 720 744 759 760 805 859 858 856 936 869 835 895 917 897 889 871 945 850 903 929 855 825 879 805 841 833 753 772 772 726 766 729 701 686 655 638 642 613 641 612 614 629 657 602 597 600 548 578 561 566 602 558 587 582 612 579 572 549 567 571 559 531 559 576 572 575 516 545 572 590 589 568 579 577 549 563 551 550 579 557 592 600 539 524 540 566 541 536 544 552 525 592 542 587 574 534 528 582 553 538 566 558 558 526 508 544 549 509 548 576 558 570 540 549 514 586 539 575 570 557 596 583 615 614 591 589 604 565 526 578 575 609 556 590 623 577 550 560 559 558 524 572 529 532 542 534 503 545 572 542 591 571 537 547 503 513 545 581 545 532 528 534 569 478 534 522 514 505 538 552 516 550 531 563 544 544 514 530 522 515 556 543 552 538 567 537 598 504 562 530 566 550 558 518 541 590 517 520 546 527 530 542 525 538 541 531 539 515 556 538 520 552 529 551 529 517 532 564 576 574 541 560 560 559 518 588 500 584 528 561 535 544 569 549 551 521 579 532 528 528 541 529 547 543 546 542 541 504 546 591 595 541 580 575 559 546 550 565 620 597 569 554 557 565 615 552 568 556 598 622 520 527 608 582 573 583 539 556 548 584 555 551 540 537 515 586 592 571 618 589 566 575 523 585 596 581 569 547 589 590 583 585 558 561 576 580 556 608 614 523 533 526 557 592 599 558 576 631 571 626 583 566 594 629 576 604 643 620 624 655 612 681 600 655 680 748 746 749 735 807 899 869 959 925 996 1056 982 992 994 1067 1108 1071 1090 1218 1163 1168 1268 1321 1305 1292 1322 1347 1328 1449 1455 1506 1486 1606 1665 1712 1802 1908 1896 2099 2173 2190 2262 2321 2473 2451 2475 2626 2702 2687 2739 2708 2806 2767 2647 2599 2454 2489 2350 2316 2266 2369 2243 2339 2265 2209 2192 2294 2146 2152 2161 2183 2052 2098 2147 2148 2230 2099 2019 2012 1843 1842 1808 1716 1700 1638 1548 1528 1446 1352 1328 1262 1215 1092 1032 1010 961 925 816 852 812 748 709 677 705 671 677 671 679 662 625 646 639 672 572 593 587 623 585 552 555 635 597 558 521 552 550 537 559 540 593 544 565 523 568 577 611 582 542 563 618 588 583 536 614 577 549 498 574 550 550 514 514 584 516 539 532 531 515 497 525 515 502 572 559 475 522 527 580 566 528 548 507 491 552 529 543 510 499 534 507 551 508 527 547 555 534 612 532 497 539 563 528 520 512 495 520 565 523 497 496 524 507 536 500 571 508 543 521 548 477 585 495 519 534 557 533 513 532 550 543 497 546 570 509 526 544 523 517 521 545 553 555 585 556 589 603 575 634 567 598 595 631 624 640 619 602 606 578 620 576 650 614 612 654 669 625 654 650 621 670 652 715 759 718 725 789 742 695 715 769 802 747 807 728 775 787 788 675 738 757 787 733 710 713 729 685 656 685 624 625 612 593 587 591 577 619 551 566 553 541 518 535 515 560 552 497 523 539 484 545 531 522 499 521 512 531 480 477 519 530 515 478 504 457 471 556 482 519 505 506 489 503 489 516 525 474 488 496 507 530 486 477 520 485 516 511 516 564 495 489 519 486 483 500 454 495 457 448 544 462 456 486 476 485 493 499 496 497 512 471 488 483 504 512 512 519 468 478 450 513 444 495 502 504 494 524 473 493 500 464 470 466 514 484 518 452 488 462 488 480 465 484 464 478 491 508 484 483 468 491 497 463 506 464 486 476 474 495 455 484 477 501 458 523 481 447 474 447 462 460 455 499 472 554 512 488 453 483 496 492 456 484 481 460 474 504 471 477 502 484 494 492 498 505 434 488 485 458 476 474 471 497 484 475 493 486 474 510 538 431 479 466 459 471 428 452 441 448 476 480 455 474 452 447 453 468 466 486 491 474 509 451 501 479 474 486 431 494 455 464 463 472 479 442 473 456 483 515 433 461 495 478 562 513 504 503 476 483 464 494 474 470 497 437 492 476 452 459 448 424 504 479 430 472 486 465 443 473 481 457 434 445 470 466 463 486 488 499 504 478 470 496 475 494 498 481 486 479 444 475 491 463 470 499 551 478 464 441 435 463 435 475 497 506 432 489 498 463 514 419 512 404 482 475 481 498 455 457 477 458 507 487 451 491 486 495 481 481 442 458 500 476 479 450 463 415 481 527 458 467 518 447 503 454 455 466 471 428 434 473 457 469 457 483 472 490 450 468 495 476 459 455 471 476 477 449 465 462 509 455 448 464 454 450 446 443 465 472 514 454 468 462 468 452 466 463 434 472 494 456 439 460 462 492 480 455 482 475 483 448 473 457 465 463 470 439 489 475 470 478 447 485 427 458 458 452 452 444 488 472 428 472 475 472 457 450 468 418 437 449 464 458 451 480 498 470 444 457 456 443 436 461 463 470 463 497 486 444 447 465 445 440 437 449 432 459 452 472 454 454 411 466 426 468 447 427 456 434 487 449 469 436 445 466 447 448 413 430 446 458 459 469 450 465 446 462 489 469 474 465 468 453 471 461 480 512 460 490 494 453 473 491 472 440 453 450 439 480 451 475 497 458 445 423 457 453 430 492 465 404 504 479 474 503 478 480 471 490 507 511 482 439 473 448 510 494 514 452 519 483 495 479 474 475 485 534 478 466 501 487 490 494 524 463 474 494 521 524 505 490 527 537 515 486 540 507 515 521 532 524 532 476 538 526 503 526 468 468 490 468 494 505 488 483 470 507 531 514 525 493 544 525 563 511 530 535 528 544 565 556 559 574 558 613 598 632 603 569 630 665 630 591 631 641 631 669 655 650 670 712 667 689 691 760 737 779 724 819 804 789 823 837 864 842 846 920 829 869 868 840 882 795 797 863 790 849 809 794 837 847 809 722 778 778 772 724 695 756 738 762 626 701 685 704 625 625 715 594 683 610 582 649 638 556 613 561 588 542 519 566 553 485 531 518 489 509 518 446 537 498 520 493 544 542 535 481 492 451 489 469 457 478 465 451 486 473 460 460 460 479 434 473 442 476 484 479 480 453 496 442 483 463 447 448 459 530 485 490 457 456 472 485 441 484 448 469 484 427 426 450 455 438 462 452 471 440 500 495 474 441 520 453 474 464 418 507 458 466 461 454 438 482 467 459 464 467 497 462 433 436 405 455 475 458 480 479 442 485 427 503 485 456 471 482 458 466 477 469 492 456 420 459 456 471 446 440 455 429 441 465 438 462 462 470 450 501 488 409 491 487 484 452 473 437 455 419 439 458 493 459 504 448 465 492 456 505 487 481 487 501 497 494 486 477 453 481 475 458 492 488 470 479 497 502 486 537 507 458 504 462 502 498 532 535 526 539 557 541 562 630 647 643 651 679 669 637 679 726 647 697 765 659 703 748 717 736 729 727 747 758 772 779 760 818 812 863 834 881 896 1013 972 969 1070 1027 1049 1090 1065 1107 1106 1033 1067 1087 1111 1069 976 1001 997 956 922 940 875 912 897 859 884 833 826 841 819 716 733 726 674 692 656 626 684 679 645 672 655 635 642 643 717 726 633 651 623 671 691 624 665 605 672 666 668 640 600 634 648 619 652 604 605 569 583 571 608 561 591 594 612 599 582 546 531 521 540 473 506 531 513 497 510 488 480 472 498 475 526 456 493 469 496 409 488 473 426 466 452 484 489 475 478 409 440 452 410 452 453 444 479 506 457 447 443 478 445 408 457 445 463 450 515 480 482 450 418 470 475 430 428 455 434 427 453 447 426 454 452 420 441 427 423 436 404 446 456 459 457 458 423 457 448 422 440 453 446 441 473 422 430 454 438 444 482 459 458 452 408 426 510 457 461 414 443 445 456 474 418 459 449 482 467 428 464 471 482 451 480 442 485 471 512 498 472 487 468 500 478 481 494 507 509 453 495 508 455 472 484 493 522 524 493 491 504 485 512 519 517 466 556 492 547 543 527 513 553 525 531 575 587 544 539 574 567 548 517 570 588 554 529 549 508 585 521 565 526 570 561 503 533 497 518 513 495 483 479 505 490 515 459 493 443 478 471 476 453 462 425 456 480 411 473 468 479 425 438 460 381 430 456 428 416 447 419 468 396 434 417 428 432 413 459 399 445 448 440 418 426 444 447 430 427 447 426 447 453 439 467 433 445 412 428 430 445 429 418 425 439 388 412 398 393 419 413 376 449 450 385 383 413 459 435 415 471 434 402 421 428 424 440 404 419 453 418 420 390 414 417 387 388 423 396 422 442 406 441 415 411 403 426 412 404 432 388 422 404 401 419 406 466 427 427 436 412 425 453 463 455 420 408 395 418 430 439 399 428 452 428 397 425 417 364 426 380 427 426 420 458 416 438 463 417 393 428 424 403 395 452 406 450 423 458 389 408 407 384 402 423 435 425 406 396 402 393 432 442 414 412 404 438 401 398 405 429 397 382 419 418 415 418 441 414 371 422 394 409 399 435 417 439 397 398 429 385 407 441 433 413 437 417 418 399 422 418 424 434 437 436 386 406 409 424 441 407 456 408 409 427 398 429 437 439 455 398 407 440 437 444 435 410 362 430 405 443 390 424 434 405 385 431 454 421 392 454 405 453 411 418 412 430 388 425 435 412 406 414 424 429 409 419 412 401 413 416 460 425 411 440 379 412 413 389 410 385 382 405 400 436 390 398 457 411 434 431 410 434 430 452 400 459 428 427 411 423 437 430 408 412 455 433 441 451 416 431 412 387 402 402 420 435 403 376 396 417 435 431 391 424 385 475 384 425 401 415 407 418 398 426 391 424 399 420 412 416 422 416 378 415 420 403 416 431 408 386 371 424 431 426 384 413 408 405 393 390 403 405 443 390 418 431 432 401 395 424 437 435 407 395 390 401 404 423 409 428 443 445 456 437 432 435 433 431 466 407 445 447 428 411 410 412 410 404 374 386 397 430 387 453 468 408 433 423 392 406 412 421 415 412 434 411 398 430 414 421 419 448 426 452 447 475 436 403 452 431 427 466 432 461 440 396 474 421 455 476 446 465 424 470 494 495 456 476 506 511 481 504 501 471 458 459 436 491 473 501 458 511 486 465 490 462 417 442 444 425 454 491 412 437 452 441 462 413 431 430 440 442 461 417 445 396 383 450 406 449 434 412 406 446 424 433 410 382 418 434 409 419 454 434 416 390 433 409 421 429 440 411 405 408 433 435 418 425 429 432 357 410 397 386 411 421 388 424 439 378 452 443 438 411 396 433 365 436 412 403 454 430 404 409 395 446 415 396 399 403 368 407 434 398 439 391 385 421 403 391 404 433 390 393 466 378 388 407 388 421 402 383 372 457 373 398 392 420 387 414 402 408 400 414 395 408 376 398 412 388 432 411 385 384 377 406 441 395 404 421 413 430 459 393 423 435 401 395 402 394 386 427 381 416 383 411 412 419 427 437 433 439 445 415 366 430 422 412 457 414 403 421 408 413 414 419 410 435 418 449 352 392 422 414 391 429 391 421 389 411 430 403 460 456 430 439 402 396 399 428 407 375 396 393 392 387 420 444 392 401 379 414 404 412 400 424 432 387 436 442 413 398 420 429 392 435 398 429 467 422 427 408 428 380 399 418 429 400 414 418 429 444 424 417 458 396 403 420 412 393 445 417 498 417 415 411 444 433 421 437 452 446 486 488 510 470 500 487 458 489 535 464 486 539 502 499 479 555 471 548 551 602 504 575 584 561 576 648 614 706 642 670 671 713 693 734 690 707 738 729 700 745 713 755 706 696 709 655 659 667 658 631 647 651 619 626 653 642 641 595 635 622 542 560 570 556 525 492 521 562 468 470 471 485 507 484 491 472 465 441 455 453 401 475 430 431 445 433 426 418 431 440 427 399 423 435 433 421 455 384 412 411 394 422 446 420 389 446 428 457 401 401 379 425 397 382 399 398 406 441 405 395 412 387 435 422 404 408 369 408 398 413 403 405 389 415 428 405 384 382 400 418 383 386 446 401 429 414 414 421 375 432 395 389 389 381 406 415 419 438 440 436 398 386 391 407 377 423 401 429 393 394 415 432 380 421 383 416 411 422 415 414 374 405 391 427 372 399 386 406 398 384 374 444 405 383 430 405 402 403 435 365 410 407 399 437 429 388 392 429 418 347 435 401 374 398 428 414 430 363 395 360 430 388 396 398 408 374 383 427 375 414 414 392 389 389 388 429 379 421 393 401 389 399 387 414 436 403 414 421 411 428 450 419 396 415 396 407 391 418 414 438 376 397 377 436 410 408 351 407 362 405 383 423 452 439 444 406 417 380 453 387 403 388 401 376 402 377 384 397 366 441 427 399 417 396 430 379 408 403 414 447 418 434 392 408 413 412 422 435 403 437 420 398 426 413 395 365 420 415 374 407 384 431 401 424 386 384 430 386 441 432 410 430 436 462 416 395 423 391 404 424 417 416 460 413 400 389 436 408 410 420 393 403 381 397 420 439 413 445 396 383 381 415 453 413 401 427 414 416 414 379 397 436 413 386 407 395 399 418 367 407 381 385 415 394 378 385 417 439 404 397 426 401 415 402 412 411 420 369 412 365 390 392 384 399 407 414 417 457 410 403 451 409 411 381 410 426 395 385 419 435 387 395 381 424 376 395 390 409 443 402 422 412 385 412 397 390 379 379 398 400 410 457 390 437 362 407 426 396 413 384 397 437 389 425 392 418 415 405 434 411 458 436 380 387 369 392 402 400 437 420 429 415 432 399 436 409 405 394 396 410 385 409 444 393 425 436 426 394 441 402 384 405 405 394 404 391 405 404 400 362 396 402 416 409 422 428 379 428 395 379 411 459 407 427 413 384 416 415 407 389 408 412 412 401 423 438 416 459 413 394 398 388 412 407 373 414 442 412 405 423 400 428 398 401 428 410 390 394 420 406 408 414 406 427 387 416 435 392 418 405 414 427 413 420 413 427 420 407 398 381 391 446 412 413 396 415 381 398 415 405 400 390 441 408 363 443 427 391 403 411 415 439 387 442 399 397 425 425 381 406 455 430 425 422 394 408 415 403 389 422 412 438 396 416 391 403 403 452 419 431 398 434 411 412 415 448 427 412 430 388 407 406 411 409 405 411 448 405 417 413 453 453 427 396 393 447 401 406 470 469 465 422 433 422 478 411 461 396 455 456 441 481 467 434 441 488 488 458 471 471 464 428 449 408 444 458 458 437 436 418 477 425 471 460 494 438 450 471 442 428 433 433 465 437 438 461 470 497 486 460 481 496 469 499 514 506 472 472 455 491 456 480 489 491 502 475 465 518 513 524 516 486 569 511 554 518 552 576 536 630 515 520 526 557 530 526 504 488 547 509 514 555 557 535 514 553 549 531 520 552 574 542 501 493 574 498 532 485 513 506 482 460 513 510 497 469 490 486 443 535 487 475 466 438 443 457 464 506 479 479 453 488 488 498 498 478 452 445 466 494 444 482 474 470 443 438 441 459 444 467 504 425 426 452 449 448 437 463 434 475 415 416 459 425 452 483 468 421 410 461 406 426 403 433 429 419 441 417 455 435 399 430 417 436 424 418 449 449 432 428 430 471 409 420 436 415 435 424 423 440 416 424 428 468 453 425 469 435 444 420 419 455 463 397 425 442 444 436 437 452 456 419 408 471 450 450 425 392 460 435 417 466 433 407 422 449 433 390 438 407 443 467 464 464 409 487 435 479 455 447 440 399 432 440 445 435 460 425 454 514 516 443 482 460 461 464 492 495 473 444 470 470 465 477 513 478 518 475 549 511 541 564 557 572 560 570 579 608 610 597 578 611 569 572 679 661 626 674 689 651 670 828 731 760 797 821 853 875 915 901 910 943 884 857 886 931 889 846 895 759 855 796 817 814 833 806 817 757 768 754 785 787 808 805 837 839 830 838 842 834 862 860 812 844 811 812 793 816 815 840 862 843 792 826 738 754 701 711 752 721 701 703 737 695 633 682 687 661 673 704 663 619 670 631 610 599 632 549 575 536 541 547 534 536 547 536 504 542 523 510 506 483 513 468 486 486 493 516 486 433 477 435 494 503 456 437 449 458 442 452 434 433 446 436 422 447 453 449 460 436 429 463 427 452 459 414 447 466 419 480 449 421 436 459 389 407 432 420 410 412 439 447 460 438 456 411 466 450 438 479 412 434 471 419 460 430 424 453 395 475 398 448 459 451 454 475 460 458 444 455 420 460 427 447 478 421 446 434 478 453 458 479 478 436 440 438 453 445 467 457 439 450 429 429 467 473 446 481 425 447 469 500 462 456 460 479 488 491 482 484 477 437 456 494 508 430 472 447 463 473 476 492 476 530 445 448 462 445 448 491 491 455 456 472 500 481 505 424 455 425 450 435 452 433 432 453 436 443 434 436 456 432 464 428 447 439 413 391 445 435 385 434 397 411 408 404 426 426 385 412 455 424 403 428 460 389 440 411 438 425 422 433 455 452 452 430 429 443 398 389 444 436 450 420 409 413 438 437 445 409 428 404 409 407 403 394 448 438 399 438 418 404 430 381 446 426 460 417 438 425 445 447 433 418 421 447 387 417 394 417 416 457 421 411 421 398 400 428 425 423 452 427 407 390 385 409 427 419 416 433 428 418 389 406 404 400 452 411 409 382 440 439 424 434 451 438 439 394 432 408 400 427 430 447 433 458 421 391 412 394 440 432 422 419 412 413 431 409 434 407 475 445 422 433 433 435 440 440 422 404 396 409 426 457 418 412 396 364 449 412 412 449 423 422 420 380 397 463 394 403 444 442 453 419 447 421 415 437 392 408 410 410 420 394 399 430 415 416 418 435 423 387 423 407 377 365 444 394 399 405 460 408 400 391 401 446 413 408 438 429 396 410 376 406 413 405 364 394 363 417 418 415 422 451 431 440 403 439 403 417 393 385 425 398 400 455 421 450 383 425 449 415 407 443 436 429 405 418 426 445 445 419 416 466 405 411 413 433 421 404 381 411 396 407 390 388 410 431 414 421 431 391 354 416 406 418 421 416 416 413 384 453 439 435 435 408 419 422 414 393 421 397 431 414 390 422 404 423 440 463 411 432 399 396 400 417 400 382 418 399 423 418 439 397 390 388 392 398 447 378 433 404 439 414 444 406 398 419 423 438 413 408 438 403 435 382 390 415 454 411 415 421 398 392 380 411 411 434 396 430 403 444 408 407 420 384 407 423 389 427 387 422 377 398 416 439 431 423 407 433 398 420 434 422 436 445 424 413 433 429 431 415 428 453 441 478 468 456 428 462 451 469 472 454 467 448 488 449 491 479 463 469 480 459 475 520 450 489 457 480 446 451 433 447 439 477 433 443 459 425 439 448 454 447 463 465 448 400 453 460 422 437 423 442 458 456 463 452 420 452 421 395 448 412 462 432 445 412 411 417 456 420 421 431 397 429 422 478 442 415 419 429 425 437 418 453 458 417 438 402 421 408 415 366 432 395 411 394 439 400 407 432 410 415 405 414 429 408 422 405 436 402 414 429 400 437 405 431 414 461 430 431 405 405 464 416 441 435 442 421 444 410 412 407 401 425 451 431 412 429 448 411 407 423 421 374 416 423 406 413 393 415 436 432 419 411 418 439 445 404 435 401 425 422 408 387 381 374 417 407 414 423 387 418 412 416 385 414 407 392 372 419 429 391 417 440 418 442 454 440 433 419 428 403 438 423 423 413 432 443 406 418 434 441 407 473 407 417 413 430 412 440 422 435 451 399 449 420 420 439 406 426 441 435 462 397 407 422 444 384 429 404 407 399 374 405 458 420 428 434 426 457 445 436 436 445 431 414 444 444 451 451 405 458 442 446 524 478 444 466 462 466 502 493 479 456 498 476 536 468 497 468 536 552 514 562 529 534 566 580 552 573 561 609 611 596 630 708 636 647 654 663 684 681 675 724 730 699 787 772 701 688 698 724 776 729 749 708 765 763 751 777 800 773 763 817 769 747 691 702 717 670 678 663 682 679 695 608 631 634 640 597 609 648 605 615 597 549 621 625 570 622 581 568 599 568 573 518 515 547 535 475 558 564 524 493 554 522 521 523 516 557 537 552 525 517 465 556 588 535 528 515 540 553 537 533 515 526 557 503 514 522 503 495 503 510 497 513 497 477 482 455 505 507 490 498 481 482 502 477 498 467 497 476 465 485 445 512 444 453 417 447 467 402 469 464 458 449 439 432 436 470 425 458 477 417 420 447 402 461 430 443 458 435 433 439 420 444 430 406 458 413 426 471 414 439 446 400 451 433 446 428 450 437 447 452 448 432 467 452 460 446 471 498 470 473 479 445 446 438 463 419 419 423 469 461 437 426 433 420 455 478 435 434 405 458 417 446 444 427 429 427 469 409 441 429 436 441 491 482 468 414 425 415 448 380 425 421 438 428 416 422 424 447 430 424 417 468 419 428 401 389 398 411 411 427 411 418 411 414 392 463 461 427 442 416 424 415 408 400 450 450 444 425 375 383 389 430 381 434 430 435 450 450 446 418 388 433 416 452 484 375 443 405 413 430 439 406 432 392 412 392 407 415 397 415 430 420 397 422 366 453 419 422 458 426 397 392 418 399 480 425 408 389 414 394 400 440 431 446 426 419 426 400 419 441 396 399 401 450 420 413 442 355 391 444 416 419 464 427 428 424 416 410 406 431 412 407 423 447 456 411 430 419 455 412 431 418 453 439 436 426 417 426 407 438 428 432 417 410 420 393 415 437 442 425 403 423 437 422 432 410 474 450 433 425 391 440 429 441 395 393 446 413 433 408 420 426 422 427 432 407 373 389 372 423 391 432 422 440 416 405 378 406 391 417 411 447 365 407 435 443 451 441 415 429 433 420 437 433 405 412 400 419 417 398 395 381 425 408 423 428 462 460 409 409 405 452 442 428 446 407 435 425 413 405 421 431 382 437 370 453 401 443 468 449 455 403 405 411 444 434 402 397 454 414 423 390 399 426 397 432 386 423 400 436 417 408 424 373 428 417 409 407 419 428 436 448 402 406 413 454 391 439 380 403 425 414 409 397 448 417 375 429 397 393 420 389 401 399 414 406 399 381 441 442 418 405 447 419 445 427 451 425 390 441 395 422 374 394 424 401 446 419 411 415 383 454 441 397 431 418 451 410 437 410 431 432 429 396 413 412 415 411 418 420 442 400 408 410 405 351 446 433 418 424 412 441 435 440 421 367 437 417 428 398 391 447 424 412 403 428 407 424 431 389 421 463 404 432 387 433 401 402 414 414 413 412 425 402 362 413 431 392 410 411 429 424 443 428 431 429 400 413 392 426 447 429 408 472 453 420 429 452 382 477 435 403 393 453 468 438 390 399 425 431 426 423 395 424 406 419 421 442 429 408 425 422 409 403 429 444 435 380 455 441 413 451 416 408 420 426 403 450 453 441 417 442 422 421 430 430 419 435 418 479</counts>
			</dataPoints>
		</scan>
	</xrdMeasurement>
</xrdMeasurements>
