<?xml version="1.0"?>
<xrdMeasurements xmlns="http://www.xrdml.com/XRDMeasurement/2.3" xmlns:xsi="http://www.w3.org/2001/XMLSchema-instance" xsi:schemaLocation="http://www.xrdml.com/XRDMeasurement/2.3 http://www.xrdml.com/XRDMeasurement/2.3/XRDMeasurement.xsd" status="Completed" recordIdentifier="{30F29696-AF04-42F3-BFAE-E102A614114F}">
	<comment>
		<entry/>
	</comment>
	<sample type="To be analyzed">
		<id>GPSS_Li1p5Fe0p7V0p1Zr0p2Cl4_112425_69248ac4f4e53d1f723993cd</id>
		<name></name>
		<preparedBy></preparedBy>
	</sample>
	<xrdMeasurement measurementType="Scan" status="Completed" sampleMode="Reflection">
		<usedWavelength intended="K-Alpha 1">
			<kAlpha1 unit="Angstrom">1.5405980</kAlpha1>
			<kAlpha2 unit="Angstrom">1.5444260</kAlpha2>
			<kBeta unit="Angstrom">1.3922500</kBeta>
			<ratioKAlpha2KAlpha1>0.5000</ratioKAlpha2KAlpha1>
		</usedWavelength>
		<incidentBeamPath>
			<radius unit="mm">145.00</radius>
			<xRayTube id="1010048" name="Empyrean Cu LFF HR (9430 033 7310x)">
				<tension unit="kV">40.0</tension>
				<current unit="mA">15.0</current>
				<anodeMaterial>Cu</anodeMaterial>
				<focus type="Line">
					<length unit="mm">12.0</length>
					<width unit="mm">0.4</width>
					<takeOffAngle unit="deg">6.0</takeOffAngle>
				</focus>
			</xRayTube>
			<sollerSlit id="21010002" name="Soller slits 0.04 rad.">
				<opening unit="rad">0.0400</opening>
			</sollerSlit>
			<mask id="22031000" name="Fixed mask 13 mm">
				<width unit="mm">9.00</width>
			</mask>
			<divergenceSlit id="22120001" name="Divergence slit 1°" xsi:type="fixedDivergenceSlitType">
				<distanceToSample unit="mm">50.00</distanceToSample>
				<height unit="mm">1.52</height>
			</divergenceSlit>
		</incidentBeamPath>
		<sampleMovement xsi:type="spinningSampleMovementType">
			<spinnerRevolutionTime unit="seconds">1.0</spinnerRevolutionTime>
		</sampleMovement>
		<diffractedBeamPath>
			<radius unit="mm">145.00</radius>
			<antiScatterSlit id="22090040" name="AS slit 9 mm (PIXcel)" xsi:type="fixedAntiScatterSlitType">
				<height unit="mm">9.00</height>
			</antiScatterSlit>
			<sollerSlit id="21020003" name="Large Soller slits 0.04 rad.">
				<opening unit="rad">0.0400</opening>
			</sollerSlit>
			<filter id="20030001" name="Large beta-filter Nickel">
				<material>Ni</material>
				<thickness unit="mm">0.020</thickness>
			</filter>
			<detector id="7010019" name="PIXcel1D-Medipix3 detector" xsi:type="rtmsDetectorType">
				<phd unit="keV">
					<lowerLevel>4.02</lowerLevel>
					<upperLevel>11.27</upperLevel>
				</phd>
				<mode>Scanning</mode>
				<activeLength unit="deg">5.542</activeLength>
			</detector>
		</diffractedBeamPath>
		<scan appendNumber="0" mode="Continuous" scanAxis="Gonio" status="Completed">
			<header>
				<startTimeStamp>2025-11-27T09:03:26-08:00</startTimeStamp>
				<endTimeStamp>2025-11-27T09:11:33-08:00</endTimeStamp>
				<author>
					<name>AutomatedUser</name>
				</author>
				<source>
					<applicationSoftware version="1.7b (136)">PANalytical Aeris Instrument Suite</applicationSoftware>
					<instrumentControlSoftware version="3.2.00000000 20240306">AERIS</instrumentControlSoftware>
					<instrumentID>950485</instrumentID>
				</source>
			</header>
			<dataPoints>
				<positions axis="2Theta" unit="deg">
					<startPosition>10.00943322</startPosition>
					<endPosition>99.99442286</endPosition>
				</positions>
				<positions axis="Omega" unit="deg">
					<startPosition>5.00471661</startPosition>
					<endPosition>49.99721143</endPosition>
				</positions>
				<commonCountingTime unit="seconds">12.495</commonCountingTime>
				<counts unit="counts">3187 3162 3165 3174 3205 3257 3186 3214 3157 3189 3227 3237 3230 3214 3138 3082 3226 3215 3163 3160 3209 3101 3187 3043 3259 3276 3268 3223 3264 3169 3063 3190 3200 3265 3290 3285 3214 3217 3280 3287 3290 3338 3316 3245 3296 3330 3253 3236 3291 3110 3268 3331 3299 3290 3233 3369 3261 3273 3322 3252 3254 3327 3385 3292 3336 3350 3332 3296 3336 3278 3346 3379 3356 3443 3443 3359 3540 3469 3385 3303 3447 3428 3477 3531 3443 3499 3406 3441 3476 3489 3466 3444 3482 3425 3434 3389 3497 3386 3431 3521 3510 3479 3512 3481 3487 3488 3447 3481 3341 3494 3384 3448 3516 3424 3467 3463 3488 3532 3495 3451 3419 3473 3533 3530 3392 3465 3388 3553 3467 3501 3481 3400 3454 3495 3555 3471 3439 3399 3548 3479 3472 3630 3486 3484 3442 3544 3371 3590 3461 3504 3416 3536 3551 3453 3503 3457 3497 3538 3478 3439 3492 3484 3477 3546 3618 3505 3523 3488 3585 3517 3616 3553 3415 3535 3573 3462 3461 3400 3439 3574 3531 3460 3481 3511 3450 3507 3462 3514 3600 3509 3447 3403 3557 3504 3484 3477 3356 3559 3398 3472 3523 3529 3559 3353 3577 3424 3618 3520 3472 3465 3599 3469 3561 3512 3527 3555 3476 3418 3522 3472 3422 3466 3546 3521 3441 3543 3452 3562 3455 3504 3445 3377 3522 3441 3384 3547 3466 3480 3342 3491 3437 3574 3470 3339 3427 3489 3437 3517 3560 3405 3468 3523 3477 3500 3444 3436 3571 3483 3526 3528 3603 3475 3422 3531 3422 3453 3526 3373 3613 3508 3480 3418 3616 3604 3562 3463 3521 3419 3486 3384 3466 3593 3586 3510 3454 3642 3524 3593 3487 3469 3593 3449 3436 3391 3467 3500 3592 3501 3576 3437 3608 3452 3547 3562 3565 3648 3652 3613 3705 3670 3621 3635 3581 3355 3595 3627 3621 3595 3619 3663 3559 3609 3581 3588 3639 3678 3708 3725 3661 3742 3794 3565 3815 3723 3629 3710 3800 3723 3687 3799 3732 3869 3823 3764 3834 3846 3739 3729 3768 3929 3851 3745 3782 3674 3742 3775 3638 3784 3740 3810 3827 3765 3782 3930 3696 3903 3962 3772 3883 3890 3814 3853 3929 3850 3967 3819 3970 3821 3978 3941 3987 3988 3898 3895 3929 4032 3959 3995 3983 3917 4017 3994 4050 3979 4024 3991 4025 4157 4073 4096 4055 4080 4043 4130 4215 4155 4185 4106 4083 4149 4089 4236 4092 4197 4131 4183 4233 4214 4296 4276 4335 4214 4295 4261 4345 4330 4486 4508 4518 4539 4652 4648 4650 4688 4797 4758 4943 5011 4942 5057 5073 5156 5096 5213 5142 5116 5126 5268 5356 5430 5211 5485 5483 5492 5504 5555 5585 5520 5624 5641 5731 5627 5730 5687 5653 5592 5480 5538 5379 5505 5483 5182 5313 5274 5244 5212 5224 5070 5114 5229 4982 4912 4998 4936 5028 4900 5029 4798 4923 4738 4807 4935 4925 4785 4791 4744 4726 4635 4637 4550 4545 4529 4515 4429 4441 4425 4357 4381 4382 4204 4193 4208 4224 4103 4249 4204 4033 4118 4168 4091 4064 4026 3925 4063 3982 3985 4030 4042 3912 3990 3896 4027 3980 3954 4101 3944 4085 3877 3951 4030 3968 4054 4090 4094 4002 3929 3988 4050 4029 4084 4023 4152 4190 4294 4107 4130 4335 4310 4228 4335 4328 4345 4281 4353 4235 4455 4463 4486 4584 4498 4428 4386 4454 4356 4401 4286 4283 4260 4171 4166 4062 4029 4067 4125 4023 3967 3932 3944 3928 3983 3876 3946 3878 3920 3909 3972 3812 3814 3896 3789 3731 3827 3784 3791 3819 3700 3842 3706 3784 3756 3724 3695 3732 3786 3729 3714 3725 3727 3776 3846 3670 3761 3761 3715 3716 3755 3782 3647 3808 3736 3687 3796 3772 3575 3718 3804 3714 3760 3686 3761 3786 3779 3750 3542 3809 3715 3665 3695 3667 3816 3719 3751 3793 3725 3757 3696 3758 3598 3734 3697 3837 3747 3719 3683 3733 3615 3724 3863 3892 3756 3731 3795 3658 3677 3767 3716 3771 3923 3715 3707 3798 3831 3815 3729 3564 3775 3687 3815 3654 3656 3713 3635 3695 3644 3656 3634 3784 3649 3697 3709 3720 3577 3694 3769 3694 3677 3646 3617 3635 3667 3499 3572 3667 3533 3599 3706 3506 3687 3687 3683 3710 3666 3567 3753 3564 3632 3742 3661 3683 3572 3613 3661 3654 3545 3618 3638 3559 3643 3621 3691 3577 3566 3701 3612 3625 3555 3630 3653 3613 3719 3677 3606 3484 3658 3678 3646 3614 3593 3577 3723 3625 3547 3626 3570 3591 3664 3502 3607 3494 3560 3447 3638 3574 3612 3651 3595 3638 3411 3618 3675 3603 3498 3458 3574 3599 3649 3512 3550 3552 3625 3625 3675 3492 3603 3599 3657 3685 3576 3504 3619 3632 3565 3575 3517 3598 3494 3551 3533 3533 3527 3558 3497 3503 3624 3465 3514 3459 3454 3472 3663 3551 3523 3553 3451 3631 3474 3571 3582 3547 3535 3646 3513 3512 3518 3537 3572 3506 3377 3490 3540 3512 3555 3503 3549 3635 3548 3413 3500 3539 3577 3627 3517 3458 3525 3570 3490 3512 3437 3492 3423 3507 3632 3523 3466 3619 3408 3642 3628 3611 3539 3530 3432 3498 3582 3505 3381 3586 3476 3342 3571 3429 3445 3432 3556 3447 3489 3388 3419 3419 3475 3442 3444 3536 3430 3334 3446 3451 3415 3423 3451 3454 3578 3438 3363 3443 3511 3363 3431 3395 3504 3433 3404 3513 3469 3361 3465 3345 3481 3552 3417 3475 3424 3451 3539 3483 3398 3432 3437 3389 3363 3453 3429 3435 3461 3364 3484 3411 3388 3414 3594 3525 3424 3525 3416 3437 3451 3553 3377 3493 3472 3372 3483 3418 3502 3331 3481 3429 3369 3467 3455 3418 3470 3441 3566 3470 3381 3516 3497 3355 3445 3418 3523 3442 3419 3372 3472 3374 3331 3480 3473 3490 3457 3393 3381 3541 3488 3419 3341 3392 3416 3452 3366 3455 3376 3441 3425 3518 3460 3547 3408 3343 3396 3441 3410 3457 3443 3412 3474 3242 3371 3388 3263 3508 3522 3415 3456 3431 3324 3436 3471 3478 3515 3626 3398 3440 3390 3465 3353 3359 3456 3401 3361 3435 3303 3433 3479 3335 3434 3350 3432 3357 3354 3423 3387 3467 3520 3270 3405 3303 3391 3341 3536 3361 3469 3440 3418 3372 3450 3446 3411 3434 3373 3423 3405 3409 3523 3423 3400 3425 3405 3501 3387 3596 3269 3417 3327 3360 3414 3432 3366 3420 3371 3394 3346 3403 3490 3424 3318 3503 3514 3492 3403 3461 3420 3406 3378 3354 3483 3449 3366 3354 3462 3379 3421 3470 3386 3431 3445 3421 3343 3436 3358 3406 3300 3442 3380 3518 3317 3352 3342 3410 3374 3357 3344 3342 3453 3343 3385 3387 3372 3329 3379 3393 3436 3328 3291 3371 3495 3444 3275 3364 3394 3428 3360 3453 3279 3425 3355 3344 3428 3356 3367 3411 3411 3381 3318 3214 3341 3289 3359 3327 3348 3405 3366 3316 3366 3249 3168 3294 3253 3255 3391 3198 3380 3351 3278 3194 3243 3313 3309 3185 3162 3222 3245 3191 3238 3222 3156 3215 3239 3223 3139 3084 3188 3262 3023 3211 3217 3186 3144 3170 3215 3179 3203 3182 3105 3218 3127 3011 3167 3124 3133 3151 3137 3211 3130 3149 3074 3221 3132 3192 3150 3167 3134 2963 3139 3111 3089 3059 3105 3084 3042 3087 3074 3091 3087 2958 3054 2929 2983 3081 2948 3063 2918 3095 3089 2957 3063 3067 3087 3016 3045 2982 3013 3114 3011 3016 3035 2979 2879 3019 3008 2976 3063 2932 2946 2975 2940 2953 3057 3060 3025 3052 2926 2935 2943 2943 2897 3000 2923 2892 2909 2854 2994 2986 3021 2938 3039 2995 3031 2932 2945 2944 2947 3009 2873 2953 2851 2910 2871 2871 2779 2933 2979 2942 2831 2808 2883 2832 2960 2973 2894 2902 2895 2783 2902 2935 2904 2861 2942 2918 2921 2923 2932 2939 3042 2945 2941 2974 2898 2917 2944 2972 2839 2940 2915 2874 2883 2862 2974 2840 2860 2899 2852 2968 2985 2923 2901 2871 2990 2983 2888 2925 2872 2929 2967 3002 2917 2891 2801 2902 2900 2832 2812 2917 2905 2790 2861 2926 2768 2749 2791 2916 2896 2847 2868 2892 2865 2867 2885 2826 2900 2808 2935 2838 2818 2807 2880 2831 2879 2828 2831 2885 2820 2858 2794 2906 2910 2839 2880 2790 2775 2847 2846 2838 2842 2820 2926 2784 2873 2917 2788 2901 2879 2769 2800 2772 2885 2746 2813 2955 2861 2838 2851 2775 2943 2891 2962 2841 2925 2920 2856 2769 2860 2833 2912 2863 2933 2880 2846 2879 2857 2856 2925 2987 2895 2852 2826 2816 2825 2889 2836 2846 2774 2939 2888 2925 2878 2790 2881 2860 2776 2908 2882 2908 2867 2925 2848 2879 2901 2888 2820 2822 2909 2854 2878 2919 2909 2849 2858 2895 2879 2938 2878 2828 2819 2805 2836 2889 2821 2900 2853 2894 2874 2843 2856 2760 2827 2793 2880 2870 2814 2861 2801 2894 2803 2917 2891 2779 2834 2812 2828 2818 2781 2769 2697 2829 2831 2835 2823 2790 2884 2924 2828 2769 2827 2852 2848 2815 2709 2797 2776 2895 2857 2811 2816 2620 2812 2914 2799 2801 2770 2778 2714 2864 2728 2822 2741 2825 2730 2814 2806 2792 2768 2801 2692 2729 2790 2836 2693 2755 2701 2761 2791 2754 2730 2717 2758 2754 2676 2681 2740 2750 2659 2651 2716 2717 2615 2802 2724 2756 2643 2691 2690 2733 2623 2816 2772 2736 2675 2678 2596 2743 2590 2549 2674 2672 2701 2700 2743 2805 2629 2762 2699 2637 2576 2711 2691 2718 2550 2624 2619 2572 2610 2624 2672 2662 2553 2571 2591 2625 2672 2668 2645 2642 2642 2640 2570 2649 2613 2642 2690 2539 2593 2605 2577 2574 2604 2633 2672 2619 2589 2524 2555 2635 2585 2548 2505 2578 2563 2525 2536 2555 2607 2466 2616 2514 2717 2541 2554 2600 2602 2507 2544 2612 2579 2587 2571 2501 2577 2601 2598 2586 2585 2552 2458 2550 2570 2523 2501 2529 2583 2538 2637 2619 2580 2630 2553 2593 2593 2620 2707 2606 2583 2769 2761 2748 2782 2756 2838 2903 2749 3085 2835 2970 2922 2908 3090 3083 3048 3118 3093 3123 3208 3178 3313 3238 3214 3340 3230 3392 3376 3353 3310 3436 3378 3325 3350 3325 3223 3335 3229 3204 3131 3053 3038 3084 2978 3077 3006 2894 3046 2872 2865 2830 2885 2916 2920 2781 2751 2816 2727 2831 2694 2603 2678 2635 2739 2645 2665 2696 2703 2608 2565 2660 2562 2656 2635 2622 2666 2688 2629 2562 2693 2439 2626 2619 2602 2537 2613 2504 2561 2454 2529 2537 2550 2501 2493 2642 2572 2495 2643 2529 2551 2432 2511 2508 2572 2596 2424 2585 2508 2557 2502 2628 2563 2673 2576 2634 2660 2717 2644 2702 2736 2818 2788 2876 2906 2912 2990 3006 3010 3130 3150 3339 3386 3369 3515 3245 3525 3592 3623 3625 3625 3830 3812 3817 3904 3874 4062 4056 4087 4144 4172 4146 4121 4280 4221 3980 4071 3972 3940 3856 3956 3759 3736 3757 3547 3574 3623 3611 3589 3346 3380 3385 3332 3301 3246 3102 3148 3167 3045 2945 2924 2823 2833 2849 2895 2784 2840 2775 2846 2808 2734 2694 2700 2818 2622 2725 2699 2581 2541 2655 2703 2562 2590 2704 2755 2727 2718 2584 2526 2644 2567 2618 2540 2546 2571 2519 2585 2458 2556 2564 2518 2479 2449 2522 2438 2484 2523 2488 2472 2416 2416 2434 2362 2452 2362 2329 2447 2348 2455 2385 2465 2427 2355 2455 2345 2371 2339 2380 2426 2452 2403 2364 2365 2283 2300 2309 2353 2345 2383 2368 2302 2320 2290 2426 2246 2331 2335 2308 2278 2310 2358 2328 2339 2219 2340 2354 2272 2340 2305 2309 2326 2361 2268 2226 2349 2265 2298 2276 2277 2284 2323 2390 2267 2272 2339 2274 2203 2384 2289 2395 2406 2276 2293 2314 2306 2223 2252 2266 2346 2267 2331 2273 2267 2331 2306 2272 2227 2191 2301 2263 2280 2173 2275 2325 2348 2212 2331 2274 2174 2262 2327 2354 2267 2237 2306 2233 2286 2311 2257 2283 2251 2377 2285 2315 2246 2302 2280 2297 2340 2277 2204 2295 2220 2219 2308 2253 2294 2259 2245 2220 2260 2294 2319 2243 2246 2235 2217 2229 2288 2408 2308 2205 2227 2200 2240 2337 2280 2275 2182 2318 2259 2258 2306 2250 2296 2336 2282 2227 2269 2288 2218 2199 2164 2224 2184 2176 2313 2272 2285 2188 2278 2267 2207 2281 2245 2218 2332 2219 2259 2249 2252 2274 2229 2286 2264 2296 2169 2274 2340 2285 2361 2192 2303 2260 2288 2177 2339 2285 2324 2182 2301 2286 2278 2275 2205 2254 2234 2235 2131 2281 2238 2243 2260 2199 2252 2282 2232 2227 2297 2271 2180 2269 2217 2198 2266 2225 2251 2262 2276 2295 2293 2234 2171 2261 2248 2219 2293 2255 2226 2236 2252 2290 2337 2276 2200 2237 2266 2248 2285 2217 2247 2281 2295 2325 2324 2259 2245 2253 2295 2336 2189 2226 2197 2205 2330 2281 2334 2340 2272 2311 2284 2251 2287 2345 2256 2269 2302 2232 2272 2271 2364 2354 2341 2285 2383 2325 2365 2279 2347 2233 2368 2320 2276 2332 2358 2378 2313 2412 2249 2348 2362 2445 2344 2530 2392 2338 2462 2484 2439 2457 2409 2476 2465 2501 2635 2721 2600 2623 2786 2850 2969 2960 3041 3115 3167 3224 3388 3442 3585 3806 3942 4232 4321 4473 4659 4718 5012 5336 5454 5605 5889 5868 6086 6316 6587 6582 6896 6861 7301 7284 7598 7730 7973 8302 8267 8234 8404 8397 8462 8514 8463 8378 8381 8060 8109 7917 7726 7646 7230 7100 6868 6715 6664 6422 6367 6052 5992 5851 5695 5580 5473 5231 5202 4872 4728 4608 4422 4241 4103 4087 3896 3791 3824 3615 3536 3436 3346 3203 3172 3129 3064 2986 3079 2955 2885 2989 2898 2834 2920 2840 2815 2752 2739 2797 2728 2693 2764 2765 2819 2684 2696 2649 2708 2683 2639 2571 2622 2537 2589 2549 2490 2569 2572 2424 2551 2472 2509 2444 2455 2480 2426 2484 2492 2422 2440 2440 2372 2377 2346 2351 2313 2297 2395 2414 2279 2320 2304 2319 2301 2257 2287 2277 2172 2266 2223 2250 2215 2299 2252 2311 2246 2273 2217 2192 2284 2179 2190 2204 2259 2229 2310 2223 2180 2210 2197 2319 2224 2292 2278 2272 2154 2127 2254 2256 2223 2229 2116 2207 2132 2196 2317 2206 2302 2142 2245 2162 2185 2172 2247 2215 2172 2260 2222 2217 2165 2165 2191 2243 2206 2181 2191 2181 2242 2177 2204 2205 2089 2159 2205 2188 2208 2056 2188 2211 2182 2115 2210 2080 2096 2289 2114 2166 2208 2172 2175 2102 2196 2192 2232 2128 2172 2092 2189 2192 2271 2226 2130 2162 2216 2145 2203 2113 2199 2237 2214 2196 2224 2199 2093 2135 2209 2148 2245 2145 2213 2100 2185 2155 2168 2151 2190 2235 2208 2191 2156 2208 2167 2184 2198 2138 2161 2101 2202 2131 2257 2181 2180 2195 2193 2138 2043 2073 2071 2201 2119 2130 2197 2146 2104 2165 2127 2165 2140 2175 2162 2142 2133 2216 2054 2134 2134 2128 2153 2234 2067 2175 2165 2192 2159 2176 2178 2243 2124 2273 2141 2190 2171 2215 2277 2233 2310 2205 2185 2210 2220 2201 2268 2163 2291 2255 2173 2202 2209 2206 2300 2261 2294 2184 2296 2287 2252 2189 2323 2191 2239 2187 2176 2208 2151 2275 2174 2262 2108 2162 2236 2178 2234 2191 2172 2066 2210 2134 2156 2105 2129 2235 2111 2087 2155 2184 2275 2144 2202 2089 2146 2149 2207 2163 2160 2188 2113 2124 2142 2161 2208 2098 2164 2111 2115 2144 2104 2130 2115 2123 2206 2119 2130 2128 2162 2142 2118 2180 2088 2155 2142 2087 2120 2139 2103 2078 2119 2113 2170 2129 2091 2211 2093 2246 2172 2170 2251 2154 2138 2108 2074 2196 2093 2114 2052 2269 2189 2104 2206 2256 2096 2170 2175 2037 2125 2185 2169 2153 2246 2097 2129 2151 2057 2122 2196 2076 2073 2039 2151 2163 2067 2110 2189 2092 2056 2100 2132 2078 2047 2097 2156 2127 2134 2138 2014 2080 2105 2039 2062 2049 2003 2039 2114 2158 2057 2079 2065 2147 2089 2081 2019 2061 2101 2099 2137 2097 2144 2096 1987 2062 2074 2102 2127 2181 2048 2024 2147 2109 2041 2104 2055 2104 2057 2150 2119 2011 2011 2122 1984 2119 2114 2052 2024 2100 2033 2103 2019 2055 2097 1994 2118 2023 2110 2064 2054 2109 2107 2164 2059 2080 2106 2125 2025 2070 2067 2089 2035 2046 1998 2035 2054 2072 2072 2075 1975 2094 1998 2043 2035 2014 2104 2118 2058 2064 2052 2073 2071 2028 2053 2092 2068 2005 2089 2133 2075 2067 2014 2059 2023 2037 2104 1985 2024 2029 2098 2092 2034 1985 2133 1959 2070 2111 1976 2080 2011 1999 2027 2102 2128 2054 2015 2064 2021 2026 2034 2097 2085 2122 2094 2060 2034 2074 2005 2039 2100 2003 2056 2008 2062 2151 2030 2029 2048 2043 2036 2064 2115 2075 2061 1996 2102 2066 2131 2077 2087 2121 2015 2082 2085 2134 1989 2074 2013 2072 2026 2058 2036 2040 2051 2083 2038 1981 2053 2077 2091 2091 2095 2127 2066 2070 2060 2072 1981 2083 2066 2133 2110 2112 2135 2106 2038 2088 2041 2148 2019 2033 2001 2043 2044 2049 1966 2096 2052 2022 2080 2048 2006 2104 2047 1970 2032 2008 2038 2050 2065 1988 2101 2052 2110 2057 2020 2042 2135 2004 2041 1923 2069 1967 2053 2039 2035 2072 2016 2029 2041 1966 2131 2044 1991 2071 2047 2019 2063 2066 2006 2079 2021 2096 2014 2029 2151 2070 2033 2060 2080 2030 2127 2027 1990 2117 2107 2017 2086 2087 2029 2060 2155 2049 2021 2025 1997 2056 2047 2069 2067 2082 2140 2039 2066 2104 2041 1965 2011 2040 2004 2032 2075 2160 2114 2085 2096 2066 2110 2048 2063 2045 2019 2086 2104 2013 1994 2034 2064 1988 2016 2158 2089 2063 2034 2056 2005 2067 2097 2027 2068 2018 2042 2121 2060 2131 2062 2048 2165 2058 2010 1990 2094 2005 2088 2086 2092 2033 2134 2008 2113 2037 2064 2050 2121 2079 2064 2022 2059 2052 2038 2025 2009 2109 2062 2032 2079 2024 1992 2028 2009 2046 2070 2072 2052 1996 2049 2095 2010 2061 2017 2065 1918 2009 2007 2076 2002 2040 2027 2125 2058 2019 2000 2063 2045 1960 2020 2032 2019 2043 2018 2057 2011 1976 2120 2099 1990 2032 2056 2074 1957 2006 2012 2011 2017 1965 2092 2011 2118 1999 1966 2104 2005 2027 1972 1993 2062 2105 2027 1981 2114 2046 2028 1949 2017 2076 2032 2003 2006 2036 2012 2028 2045 2045 2005 2021 2042 2017 2038 1943 1986 1989 1971 1961 2019 2000 2107 1977 2013 2106 2012 1957 1998 2023 1998 1976 1980 2065 1997 2046 2076 2008 2034 1992 2124 2012 2075 2017 2055 2057 2013 2032 2064 2010 2050 2089 2036 2118 2049 2017 2047 1995 2056 1971 2016 2102 2042 2069 2026 1911 1985 2073 2083 2103 1922 2133 1923 2089 2047 2004 2164 2011 2022 2159 2134 2062 2062 2044 2000 2071 2063 2033 2049 2107 1989 2105 1971 2120 2092 2139 2035 2112 1990 2104 2045 2080 2110 2047 2112 2074 2106 2084 2129 2136 2137 2192 2257 2062 2195 2151 2197 2274 2257 2333 2281 2310 2314 2296 2446 2364 2484 2397 2474 2447 2531 2505 2644 2559 2638 2658 2632 2534 2610 2627 2663 2526 2652 2636 2695 2574 2659 2561 2550 2546 2565 2522 2561 2497 2542 2453 2520 2398 2338 2363 2277 2371 2360 2239 2313 2330 2195 2299 2239 2278 2303 2226 2234 2244 2162 2149 2166 2150 2169 2104 2133 2190 2207 2079 2055 2099 2101 2072 2153 2125 2056 2100 2100 2187 2132 2098 2037 2004 2092 2007 2115 2079 2081 2092 2049 2123 2083 1999 2074 2101 2078 2160 2004 1967 2019 2110 2132 2077 1958 2007 2163 2117 2022 2095 2096 2082 2028 2054 1993 2058 2101 2022 2061 2063 2042 2070 1998 2129 2160 2071 2052 2103 2074 2020 2123 2071 1975 2062 2028 2079 2042 2100 2001 2101 2007 2050 2089 2147 2013 2041 2050 2039 2050 2084 2015 2094 2001 2056 2042 2090 2023 2026 2004 2033 2054 1999 2026 2034 2069 2014 2011 1980 2052 2066 2031 2007 2097 2014 2092 2056 2008 1998 2025 2104 2078 2039 2020 2015 2025 2001 2032 1992 2051 2098 1970 1956 1992 1986 2089 2043 1965 1987 2009 2074 2114 1946 2036 1984 2089 2090 1969 1959 2113 1978 2046 2047 2022 2064 2108 2014 1951 2010 1988 1993 1979 1997 2004 2029 2014 2036 2033 1977 2182 2056 1997 1992 1943 2068 2055 2035 1994 1954 2023 2038 2068 2058 2055 2032 2048 2089 2043 2058 2069 2048 2061 1987 2008 1978 1967 2044 2035 2006 1952 2021 2029 2018 1997 2018 2004 2024 2069 2031 2078 2074 2145 2021 2028 2040 2076 2092 2134 2007 1933 2051 2030 2040 2117 2058 2067 2098 2027 1980 1982 2015 2003 2056 2017 2007 2033 2023 2087 2001 2004 1982 1970 2064 2031 2096 2081 2007 2104 1996 1959 1968 1950 2055 2125 2006 2044 2059 2055 2032 1998 2113 1946 2086 2020 1976 2128 2071 2085 2062 2093 2057 1969 1983 1998 1931 2080 2086 1976 2041 1988 1959 2043 1988 2042 2020 2117 2068 1990 2064 2097 2055 2065 2053 2036 2113 2068 2063 2072 2061 2081 2099 2104 2099 2186 2080 2080 2105 2142 2117 2045 2077 2130 2201 2093 2049 2149 2230 2149 2149 2165 2134 2089 2105 2248 2218 2293 2239 2266 2300 2324 2364 2373 2480 2464 2579 2588 2680 2830 3024 2988 3003 3127 3213 3241 3442 3508 3635 3799 3828 3894 4016 4249 4266 4487 4630 4698 4653 4908 4728 4997 4804 4813 4625 4699 4773 4793 4765 4774 4704 4673 4563 4542 4606 4362 4362 4272 4196 4125 4081 4002 3836 3889 3774 3630 3665 3549 3403 3356 3433 3309 3258 3215 3107 3237 3034 3038 2954 2948 2922 2982 2900 2869 2819 2802 2665 2719 2533 2578 2617 2608 2550 2511 2551 2500 2404 2369 2355 2376 2349 2393 2369 2357 2271 2333 2382 2373 2380 2469 2381 2337 2379 2413 2371 2432 2391 2378 2491 2505 2486 2546 2511 2476 2492 2558 2625 2507 2581 2492 2578 2627 2596 2512 2556 2522 2429 2378 2497 2407 2415 2511 2326 2424 2416 2352 2454 2332 2276 2324 2355 2242 2266 2205 2240 2195 2235 2260 2169 2165 2265 2241 2253 2144 2082 2170 2201 2085 2226 2102 2156 2024 2088 2191 2220 2088 2097 2065 2098 2054 2050 1963 2127 2102 2101 1989 2035 1984 2048 2026 2023 2043 1944 2082 1992 2093 2027 2079 2070 2125 2031 2065 1942 2100 2035 2048 2023 2055 2057 2118 2002 2068 2064 2029 2048 2096 2073 2100 1992 2075 2082 2045 2022 2042 2048 1993 1998 2067 1991 2026 1947 1974 2048 2039 2058 2000 2067 2054 2029 2030 2085 2063 2212 2205 2129 2062 2132 2106 2138 2169 2261 2187 2188 2161 2226 2172 2273 2267 2300 2286 2352 2323 2376 2327 2288 2361 2393 2374 2366 2340 2268 2401 2349 2328 2379 2248 2316 2257 2259 2259 2355 2316 2228 2254 2268 2257 2209 2227 2221 2240 2180 2265 2190 2208 2255 2163 2180 2165 2137 2101 2216 2059 2103 2058 2044 2084 2037 2075 2132 2028 2053 2018 2056 2047 2093 2084 2041 2010 1961 2020 2081 2063 2023 2024 2066 2029 2060 2089 2014 2043 2051 2098 2026 2086 2083 1965 2069 1989 2032 2091 1978 2037 2002 2083 2101 2087 2104 2056 2099 2106 2106 2088 2226 2118 2063 2042 2080 2157 2156 2124 2136 2161 2078 2124 2094 2162 2060 2155 2075 2168 2117 2161 2158 2135 2114 2101 2093 2071 2097 2051 2055 2010 2017 2062 2004 1969 1968 2069 1989 2035 1886 1997 2066 2087 1986 1994 1945 2036 1992 2036 2021 1974 1981 2001 1965 1936 2016 1956 1966 1985 2065 1954 2031 1949 2004 1968 1983 2058 2055 1994 2008 2004 1963 2012 2011 2006 1953 1899 2047 2049 2010 1902 1965 1944 1968 1941 1961 1965 1956 1871 1968 1897 1952 2023 2045 1937 1975 2023 1951 1950 1992 1970 1934 2030 1997 1907 1993 1915 1995 1956 1909 2052 1996 2014 2054 1868 1982 2032 1949 1971 1913 1942 1949 1944 1938 1975 1920 1899 1905 1978 1886 1889 1879 1894 1924 1964 1981 1946 1944 1964 1930 1929 2004 2028 1900 1946 1945 1984 1890 1929 1965 1967 1951 1915 1997 1907 1985 1973 1919 1870 2034 1940 1981 1913 1946 1943 1944 1976 2000 1928 2006 1993 2039 1931 1973 2005 1996 1930 1957 1882 1877 2004 1965 1875 1997 1980 1955 1930 2002 1879 1966 1968 1949 1902 2000 1966 1939 1993 1969 1946 1955 1994 1961 1977 1980 1956 1936 1917 1896 1890 1914 1923 1900 1934 1911 1962 1964 1979 1936 1916 1926 1909 1882 1839 1927 1977 1935 1874 1867 2039 1878 1924 1930 1954 2007 1978 1999 1997 1974 1861 1920 1925 1999 1965 1995 2009 1977 1956 1934 1937 2007 2009 1944 1849 1972 1995 1893 1918 1887 1928 1934 1916 1975 1999 1989 1978 1926 1825 1975 1925 1927 1922 2008 1948 1951 2074 1926 1969 2024 1956 1922 1889 1966 1935 1882 1934 1908 1940 1952 1952 1977 1933 1970 1948 1919 1951 1918 1928 2001 1959 2007 1955 1882 1967 1972 1990 1944 1911 1950 1998 1983 1978 2040 1855 1924 1925 1950 1940 1951 1862 1997 1917 1974 1972 2041 1893 1897 1939 1980 1933 2008 1910 1946 1930 1983 1879 1977 1902 1896 2015 1897 1954 1953 1935 1972 1993 1984 1974 1897 1928 1889 1917 1907 1894 1918 1899 1984 1920 1953 1978 2007 2026 1975 1933 1932 1871 1879 1954 1933 1916 1928 1965 1948 1933 1883 1936 1878 1943 1937 1985 1964 1934 1920 1828 1871 1930 1979 2004 1962 1959 1956 1956 1935 1994 1873 1935 1953 1870 1963 1956 1989 1942 1895 1965 1924 1876 1989 1968 1927 1904 1919 1984 1921 1937 2083 1878 1922 1924 1918 1951 1918 2022 1950 1917 1986 1959 1895 2003 1970 1928 1954 1970 1960 1850 1955 1988 1946 1932 1969 1944 2033 1897 1985 1883 1957 1942 1965 1930 2000 1942 1952 1917 1960 1891 1986 1920 2032 1912 1942 2013 2015 2024 1977 1908 1996 1934 1957 2028 1978 1937 1951 1946 2014 1934 2039 1938 2034 2007 1945 2099 2041 1999 1993 1942 1994 1930 1924 1998 2062 1973 2071 1994 1994 1926 2105 2009 1983 2005 1934 2051 1988 2051 1956 1941 1968 1974 2025 1950 1976 2018 1911 1969 2022 2055 1954 1889 1932 1963 2033 1981 1964 2017 2006 2036 2094 2073 2056 2004 2022 1979 2003 2034 2014 2190 1980 2118 2138 2222 2077 2069 2136 2166 2139 2245 2127 2258 2193 2207 2258 2200 2196 2224 2266 2230 2196 2156 2264 2237 2288 2167 2278 2229 2192 2220 2113 2192 2257 2142 2244 2115 2140 2197 2198 2233 2148 2215 2236 2204 2148 2146 2154 2187 2091 2182 2245 2233 2260 2159 2159 2124 2261 2192 2275 2218 2237 2205 2178 2241 2160 2231 2288 2228 2237 2061 2209 2107 2158 2180 2185 2133 2067 2073 2168 2062 2096 2024 2088 1956 2054 1965 2014 2087 1985 2101 2009 2054 1951 2017 1974 1912 1959 1989 1925 1923 2031 2105 1945 1970 2014 1971 2023 1915 1935 1959 1978 2004 1995 2018 2059 2001 2043 2028 1966 2025 2010 2016 2077 1915 2020 1973 1926 2007 1970 2005 2040 2010 1968 2040 2013 2037 2025 1969 1909 2026 2020 2067 2026 2080 2041 2028 2025 1993 1988 1967 2087 1936 1970 1939 1972 2033 1957 2038 1954 1915 1958 2044 1863 2026 2035 2025 1972 1984 1930 1902 1904 2075 2011 1988 2018 1956 1919 2006 1944 1953 1950 1931 1954 1975 1939 1930 1926 1925 2027 1983 1959 1964 1935 1993 1980 1960 1966 1923 1953 1923 1902 1959 1896 1933 1963 1968 1940 1900 1902 1871 1945 1933 2027 1879 2013 1855 1858 1885 2053 2021 1963 2005 1999 1936 1945 2098 1980 1886 1930 1956 1997 1938 2074 1978 1930 2015 1954 1978 1951 1982 1926 1972 2020 1880 1878 1916 2004 1981 1965 2000 2005 1967 1936 2052 2048 2042 2095 2015 2070 1980 2101 2156 2094 2087 2136 2223 2133 2230 2292 2288 2277 2314 2384 2335 2393 2452 2390 2423 2529 2562 2496 2500 2622 2511 2586 2544 2528 2464 2558 2484 2523 2522 2498 2473 2588 2460 2463 2546 2523 2445 2482 2467 2425 2474 2423 2375 2286 2261 2310 2286 2347 2325 2300 2246 2210 2203 2227 2364 2235 2162 2250 2242 2205 2211 2155 2126 2185 2129 2168 2224 2095 2068 2181 2126 2087 2089 2172 2100 2134 2067 2145 2059 2092 2122 1967 2101 1992 2040 2033 2022 2003 2000 1992 2017 2076 2043 1905 1988 2038 1950 2035 1959 1836 1899 1993 1943 1968 1955 1902 1931 1949 1869 1885 1939 1970 1935 2036 1933 2025 1968 1920 1941 1933 2027 1975 2064 1976 1973 1998 2015 1993 1898 2015 1947 1920 2082 2072 2006 1915 2017 1975 2014 1952 1999 2028 2027 2001 1895 2001 2022 1961 1980 1998 1930 1942 2013 2058 1943 1973 1942 2062 1858 2007 2021 2004 1957 1957 1987 1954 1953 1982 2012 1902 2093 1968 2099 1969 2020 2002 1898 1967 1989 1986 2044 1931 1979 2042 1909 1963 2021 1979 2044 1937 1964 2000 2079 1971 2054 2085 1990 1988 2053 1994 2026 2005 2006 2130 2045 2120 2033 2130 2170 2078 2103 2052 2003 2166 2143 2030 2121 2075 2051 2145 2139 2095 2085 2116 2053 2089 2080 2068 2108 2075 2022 2134 2093 2037 2073 2032 1996 2051 2036 1986 2036 1992 2007 2043 2029 2038 2044 1988 2025 2024 1981 1996 1993 2014 1933 1986 2061 2048 1986 2091 1947 2005 2002 1914 1946 1986 2016 2007 1944 1923 1961 1966 1982 1936 1908 1919 1945 2002 1961 1992 1981 1911 2056 1977 1943 1965 1983 1967 1908 1989 1965 2038 1935 1957 2075 1995 1953 1930 1918 1918 1990 1961 1848 1885 1911 1975 1877 1994 1963 2014 1954 1906 1901 1985 1929 1986 1885 2001 1931 1995 1925 1894 1957 1948 1989 2001 1984 1911 1946 2011 1960 1923 1943 1967 1960 1926 1961 1911 1977 1958 1952 2001 1890 1910 1901 1892 1980 1992 1889 1953 1903 1933 1975 1953 1902 1948 1996 1923 1940 1890 1908 1912 1987 1946 1950 1951 1957 1939 1884 1906 1884 1950 1986 1913 1888 1876 1926 1986 1876 1952 1916 1985 2007 1911 1902 1904 1973 1915 1926 1891 1936 1927 1947 1839 1930 1927 1958 1917 1936 1820 1947 1932 1896 1869 1849 1955 1878 1795 1948 1820 1939 1889 1907 1958 1906 1923 1863 1891 1938 1933 1839 1938 1893 1921 1893 1830 1974 1852 2010 1839 1945 1949 1938 1850 1909 1883 1967 1894 1881 1864 1968 1915 1907 1867 1986 1928 1943 1911 2014 1883 1895 1911 1948 1895 1906 1917 1995 1988 1860 1877 1878 1917 1906 1922 1930 1925 1865 1842 1870 1860 1875 1925 2036 1905 1927 1964 1885 1956 1863 1904 1857 1861 1874 1927 1868 1958 1838 1923 1878 1899 1903 1882 1883 1910 1881 1871 1872 1885 1899 1857 1875 1931 1871 1864 1849 1857 1960 1897 1962 1962 1948 1833 1874 1889 1992 1976 1873 1888 1840 1920 1894 1918 1870 1838 1931 1870 1917 1924 1897 1904 1896 1910 1920 1865 1771 1927 1888 1856 1824 1848 1886 1904 1918 1901 1933 1851 1886 1942 1903 1836 1799 1893 1846 1896 1821 1905 1919 1878 1847 1910 1934 1874 1903 1869 1894 1915 1924 1907 1934 1856 1907 1842 1901 1849 1915 1887 1960 1948 1904 1904 1829 1847 1875 1949 1889 1871 1909 1925 1981 2004 1916 1979 1907 1873 1932 1886 1960 1939 1945 1934 1886 1893 1882 1909 1905 1911 1856 1848 1873 1882 1951 1910 1780 1901 1927 1994 1945 1831 1870 1909 1979 1865 1913 1928 1898 1866 1883 1916 1859 1865 1845 1859 1905 1932 1865 1885 1911 1908 1895 1849 1873 1936 1856 1858 1875 1841 1840 1835 1911 1927 1900 1855 1904 1854 1847 1836 1863 1895 1894 1943 1887 1890 1917 1871 1914 1888 1922 1939 1864 1901 1922 1900 1905 1895 1893 1854 1924 1864 1904 1918 1902 1862 1852 1873 1880 1924 1939 1844 1904 1853 1931 1866 1937 1862 1898 1906 1841 1842 1911 1900 1918 1882 1911 1905 1975 1867 1948 1966 1990 1948 1982 1955 1893 1909 1941 1954 1991 1973 1992 1998 1920 1946 2064 1941 1998 1919 1978 2058 2005 1995 1969 1939 1924 1982 1996 2018 1987 2047 2025 1978 2041 1886 1973 1969 2055 1985 1924 1964 1880 1969 1903 1996 1974 2011 2024 1904 1969 1980 1905 1932 1908 1902 1943 1891 1940 1954 1941 1865 1879 1955 1981 1939 1987 1946 1965 1976 1944 1943 1906 1968 1883 1847 1888 2004 1813 1904 1953 1947 1921 1924 1905 1908 1895 1879 1918 1867 1905 1888 1922 1900 1954 1868 1897 1850 1966 1877 1895 1866 1828 1891 1934 1947 1970 1826 1945 1912 1912 1784 1869 1917 1889 1919 1917 1956 1901 1889 1883 1927 1801 1912 1928 1929 1871 1938 1956 1909 1926 1896 1899 1918 1911 1918 1852 1864 1900 1955 1940 1956 1900 1801 1875 1894 1933 1907 1957 1901 1869 1855 1855 1922 1838 1882 1961 1901 1881 1841 1928 1841 1849 1881 1967 1913 1921 1987 1933 1910 1952 1948 1891 1895 1921 1933 1908 1935 1950 1924 1995 1956 1996 1892 1944 1856 1842 1812 1930 1949 1893 1889 1943 1972 1769 1935 1761 1891 1927 1893 1914 1940 1892 1884 1914 1885 1828 1990 1986 1935 1855 2006 1923 1892 1976 1806 1922 1862 1892 1882 1891 1910 1901 1897 1895 1933 1905 1921 1857 1961 1865 1959 1893 1914 1871 1843 1828 1954 1810 1860 1861 1951 1895 1947 1908 1886 1816 1861 1899 1873 1860 1893 1869 1888 1848 1949 1829 1837 1895 1886 1858 1883 1850 1905 1931 1927 1942 1870 1869 1875 1887 1982 1874 1922 1874 2018 1890 1847 1962 1932 1941 1846 1936 1952 1890 1881 1932 1921 1899 1942 1909 1953 1938 1937 1998 1991 1988 1950 1955 1969 1926 1986 1923 1992 1931 2060 2027 2018 2039 2001 2077 2058 2137 2108 2064 2071 2096 2177 2282 2165 2164 2093 2205 2125 2218 2147 2033 2224 2126 2090 2176 2190 2170 2184 2150 2138 2191 2100 2027 2128 2161 2176 2257 2107 2069 2136 2126 2151 2054 2039 2018 1996 1995 1979 2000 2046 2019 2140 2007 2118 2166 2107 2013 2036 2084 2041 2046 2007 2019 1943 2030 2063 2147 1994 2006 1987 2072 1927 2012 2046 2008 1940 1976 1973 2034 1995 2055 1888 1970 2065 2051 1998 2058 1972 1953 2002 2022 2019 1952 2017 1916 1976 1927 2032 2070 1932 1949 1957 1952 1997 1896 1901 1916 1926 1985 1938 1925 1952 1907 1924 1925 1929 2044 1837 1968 1826 1952 1845 1846 1944 1925 1934 1872 1917 1904 1904 1910 1971 1905 1857 1897 1934 1943 1993 1971 1894 1942 1889 1914 1942 1921 1888 1943 1949 1830 1967 1890 1888 1976 1946 2033 1927 1792 1921 1897 1868 1953 1917 1912 1909 1877 1997 1871 1910 1919 1929 1880 1989 1928 1843 1964 1828 1831 1966 1867 1986 1918 1951 1866 1890 1926 1936 1887 1898 1917 1835 1855 1895 1872 1907 1977 1967 1883 1911 1852 1940 2028 1892 1947 1858 1891 1944 1893 1965 1996 1873 1858 1817 1871 1822 1869 1840 1884 1900 1862 1922 1898 1912 1929 1951 1849 1915 1891 1884 1889 1936 1978 1894 1931 1869 1901 1883 1830 1864 1869 1876 1851 1904 1945 1933 1870 1847 1876 1887 1876 1864 1842 1870 1845 1936 1943 1896 1908 1907 1924 1977 1868 1874 1854 1846 1945 1898 1896 1893 1896 1937 1952 1813 1851 1861 1946 1851 1885 1855 1913 1933 1943 1960 1878 1886 1891 1898 2071 1882 1913 1982 1858 1814 1888 1862 1911 1871 1775 1909 1818 1959 1925 1932 1933 1949 1843 1936 1865 1842 1873 1933 1903 1920 1966 1926 1881 1891 1911 1913 1890 1896 1849 1824 1957 1883 1908 1844 1904 1895 1937 1879 1904 1878 1954 1875 1832 1967 1884 1888 1886 1866 1911 1860 1874 1870 1903 1936 1894 1892 1819 1865 1889 1925 1916 1935 1978 1947 1976 1864 1967 1923 1936 1907 1870 1998 1869 1908 1824 1898 1961 1842 1929 1822 1854 1943 1865 1875 1954 1865 1907 1923 1819 1865 1828 1946 1922 1908 1878 1878 1952 1851 1874 1848 1796 1904 1960 1907 1843 1867 1871 1904 1857 1839 1925 1908 1926 1880 1878 1914 1876 1911 1858 1932 1868 1987 1867 1833 1935 1897 1896 1935 1885 1915 1899 1855 1896 1912 1893 1865 1987 1896 1800 1915 1891 1843 1915 1788 1916 1861 1943 1944 1955 1851 1893 1860 1830 1963 1917 1813 1917 1829 1891 1926 1953 1834 1914 1922 1927 1954 1925 1849 1869 1886 1903 1884 1824 1884 1834 1860 1953 1873 1819 1910 1864 1854 1920 1833 1942 1962 1943 1930 1914 1932 1861 1921 1894 1914 1934 1912 1880 1956 1879 1875 1923 1822 1852 1910 1959 1899 1905 1865 1930 1879 1821 1991 1895 1866 1883 1988 1904 1835 1883 1887 1894 1938 1922 1922 1917 1866 1911 1871 1868 1872 1953 1804 1872 1875 1900 1842 1919 1866 1837 1877 1936 1801 1880 1904 1834 1906 1987 1886 1902 1841 1890 1835 1834 2016 1925 1815 1917 1897 1977 1910 1969 1867 1920 2041 1877 1910 1888 1946 1927 1823 1926 1902 2011 1896 1876 1888 1908 1888 1904 1936 1855 1989 1917 1843 1889 1827 1893 1897 1903 1857 1952 1875 1909 1860 1909 1926 1821 1875 1901 1881 1932 1901 1822 1854 1994 1875 1890 1893 1855 1975 1906 1982 1956 1909 1934 1905 1866 1957 1907 1894 1885 1907 1877 1794 1916 1879 1855 1806 1818 1931 1936 1891 1954 1882 1928 1987 1936 1881 1990 1863 1840 1934 1963 1893 1914 1955 1922 1865 1891 1942 1944 1883 1941 1913 1922 1922 1868 1947 1881 1853 1986 1913 1923 1944 1908 1824 1905 1896 1956 1949 1928 2017 1954 1859 1952 2032 2056 1991 1998 1904 1927 1997 1946 1976 1938 2014 1961 1912 1987 2034 1931 1931 1976 1939 1887 1935 1928 1959 1975 1955 1946 1947 2008 2009 1926 1988 1964 2024 1989 2008 2026 1969 2015 1939 1939 1954 1964 1989 2025 1928 2031 1949 1989 1997 1953 1925 1950 1921 1973 1952 1948 1914 1957 1993 1997 1973 2005 2012 2016 1987 1930 1922 2058 1877 1976 1996 1996 1923 1977 1942 1986 2068 2019 1992 1966 1970 1927 2010 1966 1959 1999 2020 2032 1920 1969 1938 1946 1967 2025 2019 1901 1944 2001 1985 2022 1979 1958 1927 2001 1921 2007 1947 1909 1965 1957 1920 1951 1918 1926 2028 1988 1992 1988 1848 1918 1974 2031 1904 1975 1987 1904 2006 2019 1952 1902 1962 1957 2027 1910 1894 2075 1933 2077 1993 1988 1955 1938 1964 1990 1960 2035 2100 1961 1989 2007 1945 2005 1940 2040 1960 1941 1918 2004 2050 1929 1956 1887 1917 1924 1947 1986 1931 1979 1901 1972 1948 1835 1869 1924 2018 1925 1923 2029 2013 1923 1898 1964 1956 1910 1906 1881 1938 1981 1879 1924 1940 1993 1912 1871 1804 1900 1947 1875 1970 1928 1837 1898 1992 1903 1874 1944 1860 1938 1917 1878 1866 1942 1939 1983 1963 1947 1949 2006 1955 1956 1938 1952 1854 2016 1954 1906 1997 1925 1862 1995 1901 1938 1912 1926 1946 1989 1923 1980 1872 1980 1891 1965 1998 1963 1983 2004 2014 1984 1976 1928 1892 2081 2039 2009 1966 1949 1927 1969 1977 1944 1935 1954 2032 2058 2021 2019 1969 1972 2001 2017 2050 1998 2015 2063 1945 1953 2101 2169 2183 2091 2179 2227 2120 2156 2171 2181 2247 2302 2268 2330 2298 2238 2338 2401 2316 2335 2346 2406 2400 2372 2343 2333 2320 2346 2339 2265 2371 2358 2453 2378 2383 2401 2483 2368 2359 2430 2472 2448 2376 2297 2387 2372 2372 2346 2293 2387 2270 2347 2246 2279 2140 2291 2303 2150 2249 2213 2085 2162 2235 2112 2166 2249 2172 2235 2143 2121 2140 2143 2195 2041 2108 2082 2109 2154 2119 2129 2157 2130 2104 2226 2200 2133 1979 2177 2134 2159 2115 2144 2121 2214 2133 2163 2128 2102 2074 2040 2160 2034 2071 2025 2033 2103 2113 2075 2117 1982 1996 2021 1997 2101 2021 2093 1952 2043 2005 1999 2088 2108 2034 2014 2108 2085 2018 2054 2024 2038 1951 1988 2015 2088 1980 1997 1968 1951 2047 1938 1990 2005 1977 2033 1949 1962 1962 1966 1891 1951 1933 1929 1997 1882 1999 1976 1955 1955 1896 1880 1927 1929 1978 2006 1946 1908 1945 1930 1961 1975 1943 1953 1952 1962 2023 2003 2056 2006 1993 1944 1959 2007 1997 1997 2008 1939 1982 2118 2059 2044 2068 2044 2027 2070 2058 2079 2022 2066 2056 2097 2009 2044 2092 1975 2013 1963 2042 2060 1983 2122 2119 2041 2035 2018 2058 2053 1988 2082 2008 2025 2032 2066 2047 2086 2051 2120 1999 2074 2043 1981 2012 2114 2041 2031 2095 1981 1974 2080 2013 2091 2019 2077 2081 1991 1990 2029 1999 2004 2027 2035 1983 2008 2011 1969 1896 1956 1967 2013 1992 2064 1990 1951 1980 1976 1993 1912 1931 1925 1978 1958 1915 1918 1950 1964 1952 1969 2015 1887 1893 1957 1998 1918 1920 1948 2054 1966 1918 1942 1965 1946 1943 1910 1887 1937 1949 1953 1976 1908 1933 1969 1866 2031 1946 1947 1947 1930 1993 1990 1882 1987 1873 1950 1937 1940 1981 1918 1925 1999 1955 1975 1863 1951 1937 1949 1884 1844 1839 1894 1942 1918 1855 1892 1988 1903 1928 1965 1951 1919 1904 1878 1961 1862 1906 1898 1888 1833 1886 1878 1835 1948 1907 1905 1943 1945 1942 1845 1937 1952 1906 1898 1771 1944 1996 1945 1948 1912 1905 1916 1837 1886 1914 1909 1927 1885 1863 1867 2010 1866 1855 1895 1886 1946 1882 2008 1901 1881 1802 1841 1875 1829 1928 1893 1950 1890 2044 1893 1901 1934 2004 1919 1982 1853 1880 1876 1896 1914 1878 1864 1951 1960 1982 2003 1819 1969 1884 1951 1990 1956 1921 1916 1870 1904 1872 1799 1902 1886 1928 1856 1909 1883 2003 1864 1946 1916 1897 1876 1964 1871 1973 1905 1975 1931 1927 1886 1878 1845 1840 1855 1951 1896 1872 1877 1893 1961 1937 1902 1967 1861 1947 1922 1875 1918 1907 1880 1889 1867 1834 1926 1864 1880 1922 1957 1964 1868 1946 1831 1901 1901 1875 1940 1956 1926 1885 1868 1999 1957 1868 1902 1942 1822 1966 1891 1981 1889 1944 1904 2004 1913 1857 1964 1890 1951 1871 1951 1997 1934 1942 1943 1888 1863 1896 1893 1892 1920 1850 1870 1881 1923 1968 1954 1945 1849 1929 1897 1873 1908 1892 1915 1920 1933 1951 1823 1841 1831 1868 1889 1957 1983 1893 1894 1834 1923 1867 1953 1913 1908 1839 1918 1852 1844 1884 1928 1866 1943 1897 1924 1958 1917 1926 1910 1906 1915 1892 1813 1884 1869 1911 1926 1910 1866 1945 1929 1992 1950 1960 1933 1882 1895 1925 1880 1901 2016 1914 1899 1869 1900 1913 1858 1926 1837 1892 1868 1917 1846 1948 1972 1920 1965 1899 1945 1841 1889 1929 1964 1857 1931 1895 1915 1851 1852 1923 1944 1910 1863 1967 1905 1932 1940 1913 1873 1912 1919 1890 1898 1898 1908 1875 2003 1933 1913 1897 1943 1904 1885 1865 1936 1862 1935 1924 1960 1853 1999 1937 1956 1921 1892 1942 1836 1898 1939 1895 1982 1952 1868 1935 1962 1907 1998 1933 2004 1923 1923 1918 2019 1923 1960 1970 1937 1990 1936 1954 1920 1877 1941 2001 2004 1970 1914 1979 1952 1918 1945 1887 2050 1946 2021 1896 1860 1966 2020 2004 1903 1987 1910 1958 1902 2019 1973 1977 1868 1902 1908 1929 1941 1973 1959 2014 1912 2003 1950 1902 1944 1934 1995 1872 1913 1971 1967 1933 1957 1972 1899 1902 1931 1970 1945 1999 1902 1953 1899 1901 1997 1841 1947 1920 1935 1931 1975 1975 1960 1928 1981 1919 1915 1943 1933 1961 1914 2017 1915 1864 1860 1976 1860 1964 2017 1963 1925 1939 1947 1961 1893 1987 1919 1912 1871 1890 1969 1840 1932 1908 1900 1897 1881 1966 1896 1935 1924 1889 1960 1834 1899 1912 1943 1858 1905 1897 1922 1859 1839 1825 1963 1952 1933 1842 1957 1900 1968 1951 1955 1902 1879 1954 1904 1899 1856 1913 1959 1959 2012 1944 1914 1893 1733 2046 1911 1929 1886 1884 1905 1874 1901 1930 1944 1906 1946 1947 1883 1900 1879 1819 1843 1955 1982 1897 1920 1962 1855 1932 1920 1880 1940 1915 1953 1998 1880 1926 1842 1916 1965 1968 1905 1962 1930 1913 1986 1884 1951 1992 1881 1913 1929 1903 1929 1933 1892 1853 1934 1883 1911 1909 1889 1929 1921 1919 1941 1935 1968 1958 1936 1940 1936 1918 2009 1962 1956 1995 1957 1961 1913 1909 1892 1880 1891 1882 1960 1939 1875 1851 1948 1920 1905 1857 1945 1961 1999 1912 2000 1992 1812 1924 1964 1941 1944 1977 1882 1959 1995 1904 1921 1891 2030 1866 1988 2029 2049 2054 1893 2006 1904 2044 2024 2030 2081 2049 2028 2039 2037 2058 2274 2192 2155 2192 2150 2185 2091 2238 2258 2193 2235 2142 2256 2176 2142 2207 2288 2257 2133 2208 2191 2192 2129 2081 2270 2228 2215 2168 2245 2164 2267 2161 2230 2232 2209 2250 2324 2136 2175 2206 2150 2245 2168 2180 2232 2183 2231 2170 2111 2230 2140 2119 2122 2101 2208 2138 2082 2086 2027 2028 2081 2081 2094 2011 2118 2046 2055 2142 1973 2096 2031 2036 2004 2032 1945 1932 1998 2009 1967 1989 2031 2044 2057 2008 2137 2072 2056 2022 2000 2052 2012 2007 2093 2058 2095 2090 1988 2009 2039 2067 2017 2025 2033 2054 2058 2031 2147 2035 2077 2051 2004 1993 2059 2022 2026 1986 2023 2059 1905 1969 2004 2012 1980 2028 2014 2001 1880 1976 2008 1886 1985 2062 2002 1995 1996 1939 1965 2027 1997 2038 1980 1974 1986 2023 1986 1861 1891 1946 1931 1921 1955 1943 1971 1956 1924 1921 1922 1928 1993 1854 1966 1891 1916 1957 1916 1925 1947 1910 1955 1809 2029 2014 1920 1982 1964 1927 1937 1927 1980 1998 1949 1931 1979 1982 1864 1947 1989 1907 1931 1969 1933 1949 1974 1989 1974 1950 1993 1970 1909 2028 2016 1993 2113 1927 1989 1977 1974 1933 1948 1986 2028 1995 1923 2027 1974 1955 1993 1967 2040 1958 2053 2061 2023 2017 1942 1983 1919 1967 2003 2039 1953 1985 2047 2003 1845 2016 1984 1904 1965 2013 1892 1934 1964 1946 1917 2006 1969 1919 2020 1960 2027 1956 1998 1973 1975 1991 1927 2000 1932 1923 1941 1901 1927 1927 1874 1930 1873 1931 1886 1907 1956 1955 2025 1948 1886 2004 2004 1803 1957 1937 1854 1913 1978 1834 1933 1995 1934 1907 1907 1931 1931 1991 1978 1977 1940 1918 1948 1947 1898 1864 1850 1912 1975 1954 1977 1899 1944 1926 1882 1987 1932 1915 1957 1835 1900 1963 1949 1878 1929 1918 1865 1941 1919 1975 1999 1998 1982 1871 1930 1918 1855 1869 1899 1951 1892 2027 2025 1942 1902 1963 1946 1869 1905 1884 1878 1855 1897 1962 1968 1869 1874 2007 1925 1953 1977 1976 1948 1925 1831 1807 1965 1891 1888 1962 1869 1919 1840 1827 1891 1924 1939 1896 1916 1924 1856 2013 1891 1939 1896 1949 1966 1942 1931 1916 1894 1877 1899 1988 1803 1877 1968 1901 1874 1857 1859 1932 1948 1973 1900 1935 1991 1951 1917 1925 1945 1802 1935 1894 1959 1868 1877 1853 1906 1947 1979 1912 1897 1932 1932 1961 1842 1951 1910 1907 1913 1850 1856 1891 1948 1886 2020 1871 1909 1925 1924 1918 1891 1867 1839 1898 1945 1925 1852 1904 1889 1963 1926 1975 1883 2004 1868 1922 1996 1968 1921 1858 1930 1948 1869 1962 2012 1904 1921 1908 1831 1912 1934 1834 1794 1909 1845 1931 1873 1857 1943 1859 1876 1952 1906 1899 1893 1907 1915 1893 1876 1867 1920 1995 1902 1883 1920 1977 1865 1907 1874 1884 1950 1882 1916 1992 1942 2032 1918 1934 1829 1904 1958 1899 1931 1928 1934 1956 1950 1789 1960 1929 1888 1894 1948 1866 1899 1972 1864 1912 1991 1991 1857 1963 1951 1903 1838 1906 1851 1906 1936 1919 1846 1880 1892 1895 1911 1903 1947 1859 1998 1938 1927 1891 1929 1839 1879 1935 1891 1837 1950 1864 1912 1880 1885 1909 1938 1970 1858 1921 1921 1885 1960 1892 1944 1906 1902 1907 1880 2011 1935 1883 1939 1929 1926 1888 1963 1888 1944 1951 1957 1853 1954 1947 1865 1806 1860 1944 1932 1914 1912 1981 1907 1892 1887 1850 1940 1971 1947 1960 1937 1987 1946 1880 1890 1962 1866 1841 1896 1911 1907</counts>
			</dataPoints>
		</scan>
	</xrdMeasurement>
</xrdMeasurements>
