<?xml version="1.0"?>
<xrdMeasurements xmlns="http://www.xrdml.com/XRDMeasurement/2.3" xmlns:xsi="http://www.w3.org/2001/XMLSchema-instance" xsi:schemaLocation="http://www.xrdml.com/XRDMeasurement/2.3 http://www.xrdml.com/XRDMeasurement/2.3/XRDMeasurement.xsd" status="Completed" recordIdentifier="{94F6EA7D-4BAC-423D-A063-33F524946200}">
	<comment>
		<entry/>
	</comment>
	<sample type="To be analyzed">
		<id>GPSS_Li1p5Ni0p5Y0p25In0p25Cl4_121825_6943d914f4d05ae3d69790b3</id>
		<name></name>
		<preparedBy></preparedBy>
	</sample>
	<xrdMeasurement measurementType="Scan" status="Completed" sampleMode="Reflection">
		<usedWavelength intended="K-Alpha 1">
			<kAlpha1 unit="Angstrom">1.5405980</kAlpha1>
			<kAlpha2 unit="Angstrom">1.5444260</kAlpha2>
			<kBeta unit="Angstrom">1.3922500</kBeta>
			<ratioKAlpha2KAlpha1>0.5000</ratioKAlpha2KAlpha1>
		</usedWavelength>
		<incidentBeamPath>
			<radius unit="mm">145.00</radius>
			<xRayTube id="1010048" name="Empyrean Cu LFF HR (9430 033 7310x)">
				<tension unit="kV">40.0</tension>
				<current unit="mA">15.0</current>
				<anodeMaterial>Cu</anodeMaterial>
				<focus type="Line">
					<length unit="mm">12.0</length>
					<width unit="mm">0.4</width>
					<takeOffAngle unit="deg">6.0</takeOffAngle>
				</focus>
			</xRayTube>
			<sollerSlit id="21010002" name="Soller slits 0.04 rad.">
				<opening unit="rad">0.0400</opening>
			</sollerSlit>
			<mask id="22031000" name="Fixed mask 13 mm">
				<width unit="mm">9.00</width>
			</mask>
			<divergenceSlit id="22120001" name="Divergence slit 1°" xsi:type="fixedDivergenceSlitType">
				<distanceToSample unit="mm">50.00</distanceToSample>
				<height unit="mm">1.52</height>
			</divergenceSlit>
		</incidentBeamPath>
		<sampleMovement xsi:type="spinningSampleMovementType">
			<spinnerRevolutionTime unit="seconds">1.0</spinnerRevolutionTime>
		</sampleMovement>
		<diffractedBeamPath>
			<radius unit="mm">145.00</radius>
			<antiScatterSlit id="22090040" name="AS slit 9 mm (PIXcel)" xsi:type="fixedAntiScatterSlitType">
				<height unit="mm">9.00</height>
			</antiScatterSlit>
			<sollerSlit id="21020003" name="Large Soller slits 0.04 rad.">
				<opening unit="rad">0.0400</opening>
			</sollerSlit>
			<filter id="20030001" name="Large beta-filter Nickel">
				<material>Ni</material>
				<thickness unit="mm">0.020</thickness>
			</filter>
			<detector id="7010019" name="PIXcel1D-Medipix3 detector" xsi:type="rtmsDetectorType">
				<phd unit="keV">
					<lowerLevel>4.02</lowerLevel>
					<upperLevel>11.27</upperLevel>
				</phd>
				<mode>Scanning</mode>
				<activeLength unit="deg">5.542</activeLength>
			</detector>
		</diffractedBeamPath>
		<scan appendNumber="0" mode="Continuous" scanAxis="Gonio" status="Completed">
			<header>
				<startTimeStamp>2025-12-20T14:18:12-08:00</startTimeStamp>
				<endTimeStamp>2025-12-20T14:26:19-08:00</endTimeStamp>
				<author>
					<name>AutomatedUser</name>
				</author>
				<source>
					<applicationSoftware version="1.7b (136)">PANalytical Aeris Instrument Suite</applicationSoftware>
					<instrumentControlSoftware version="3.2.00000000 20240306">AERIS</instrumentControlSoftware>
					<instrumentID>950485</instrumentID>
				</source>
			</header>
			<dataPoints>
				<positions axis="2Theta" unit="deg">
					<startPosition>10.00943322</startPosition>
					<endPosition>99.99442286</endPosition>
				</positions>
				<positions axis="Omega" unit="deg">
					<startPosition>5.00471661</startPosition>
					<endPosition>49.99721143</endPosition>
				</positions>
				<commonCountingTime unit="seconds">12.495</commonCountingTime>
				<counts unit="counts">2956 2913 3006 2971 2927 2963 2919 2938 2898 2960 3052 2990 3026 3103 2870 2971 2944 3004 2877 3015 2994 3010 3052 2954 2953 2984 2915 2907 2928 2940 2855 2901 2993 2925 2983 2981 2915 2993 2944 2922 2926 3122 3031 2936 3100 3052 2981 3090 2991 3009 2889 3071 2964 3009 3078 2950 2939 3074 3044 2952 3065 2978 3020 3043 2987 3128 2970 3002 3008 3124 3093 3053 3103 2935 3007 3010 3076 3002 3157 3066 3106 3074 3081 3024 3095 3133 3039 3081 3040 3028 3184 3093 3117 3021 3162 3022 3082 3191 3152 2971 3187 3161 3021 3105 3070 3129 3078 3080 3049 3104 3048 3086 2994 3188 3230 3052 3089 3198 3189 3219 3094 3100 3148 3110 3106 3166 3106 3138 3181 3315 3201 3217 3186 3138 3154 3113 3165 3094 3154 3219 3153 3235 3154 3177 3172 3143 3173 3237 3268 3330 3230 3178 3289 3161 3213 3205 3307 3284 3225 3210 3205 3216 3162 3260 3199 3225 3267 3178 3271 3342 3219 3187 3108 3170 3220 3367 3228 3221 3263 3152 3249 3176 3200 3185 3192 3276 3193 3239 3269 3336 3222 3264 3177 3209 3180 3269 3260 3287 3274 3135 3245 3221 3176 3169 3245 3144 3158 3217 3115 3171 3211 3232 3186 3223 3216 3309 3178 3167 3260 3304 3049 3277 3107 3305 3151 3271 3159 3163 3138 3191 3298 3290 3231 3140 3124 3218 3145 3149 3071 3254 3343 3248 3205 3150 3169 3174 3232 3215 3155 3258 3111 3200 3167 3157 3209 3207 3233 3320 3212 3183 3193 3210 3220 3044 3219 3176 3214 3269 3261 3221 3272 3174 3161 3274 3324 3264 3224 3219 3267 3253 3279 3239 3404 3200 3219 3275 3326 3373 3198 3376 3260 3425 3412 3293 3353 3307 3354 3310 3357 3257 3365 3298 3378 3407 3311 3265 3363 3331 3404 3455 3412 3466 3447 3506 3407 3437 3509 3428 3377 3321 3393 3389 3458 3522 3415 3386 3451 3391 3426 3454 3386 3391 3386 3531 3443 3493 3490 3471 3427 3498 3310 3573 3292 3417 3479 3442 3487 3459 3464 3565 3423 3632 3370 3468 3538 3515 3562 3646 3487 3617 3582 3552 3494 3596 3493 3515 3629 3540 3651 3519 3611 3629 3522 3660 3681 3622 3597 3519 3586 3688 3499 3616 3559 3519 3641 3625 3550 3638 3631 3576 3593 3719 3544 3645 3565 3519 3596 3652 3669 3645 3546 3472 3595 3588 3636 3670 3649 3757 3696 3547 3658 3630 3644 3500 3635 3514 3625 3587 3714 3598 3636 3648 3642 3760 3605 3642 3687 3710 3746 3735 3821 3774 3767 3739 3704 3852 3880 3982 4059 3980 4077 3960 4183 4012 4040 3928 3931 4090 4063 3966 4139 4050 4130 4210 4158 4093 4223 4189 4125 4206 4301 4352 4430 4518 4534 4685 4943 4870 5037 5137 5152 5506 5648 5670 5746 5994 5988 5990 5923 5946 5907 5825 5823 5995 5776 5792 5693 5859 5831 5801 5835 5533 5772 5604 5712 5743 5691 5731 5814 5871 5869 6040 5785 5967 5936 5939 5801 5528 5473 5400 5343 5175 4965 4943 4749 4656 4657 4424 4317 4251 4131 4076 3973 3974 3794 3606 3710 3506 3533 3483 3420 3488 3483 3456 3452 3365 3428 3370 3448 3457 3405 3251 3355 3200 3354 3368 3217 3316 3397 3346 3247 3406 3391 3339 3402 3169 3246 3431 3226 3307 3096 3300 3221 3199 3282 3217 3251 3134 3128 3235 3249 3246 3189 3275 3173 3263 3146 3113 3280 3130 3106 3216 3202 3104 3154 3202 3190 3304 3195 3062 3209 3139 3236 3150 3130 3127 3137 3125 3111 3101 3125 3144 3161 3128 3148 3102 3063 3159 3038 3058 3093 3025 2955 3148 3106 3040 3124 3084 3038 3011 3129 3074 3061 3046 3079 3072 3074 3125 2990 3096 2952 3003 2997 3064 2992 3091 3083 3037 3122 3041 2959 3084 3031 3118 3061 3095 2922 3107 3069 3089 3077 3075 3086 2979 3091 2890 3005 3118 2975 3058 3121 3080 3040 3092 3128 3046 3114 2986 3033 2946 3068 3017 3046 2978 3029 3101 3022 3075 2993 2980 3149 2989 3166 3046 2958 3093 3004 3002 3060 3091 2986 3092 3034 3153 3008 3114 3043 3097 3005 3124 3220 3089 2954 2889 3070 3104 3028 3017 3084 3083 3063 2953 2997 3007 2979 3020 2943 3037 2990 2975 2875 3070 2884 2919 2972 2950 2901 2849 2972 2978 2915 3044 2948 2838 2936 2995 2999 3002 2980 2915 2905 2888 2933 2894 2891 2946 2898 2956 2920 2805 3008 2895 3000 2835 2952 2980 2950 2803 2930 2934 2935 2995 2918 2972 2921 2983 2893 3018 2954 3055 2960 2873 2920 2916 2898 2981 2736 2946 2917 2910 2887 2938 2909 2909 2880 2840 2903 2849 2799 2894 2852 2981 2870 2945 2892 2923 2886 2853 2844 2856 2830 2917 2845 2908 2922 2971 2915 2819 2931 2895 2904 2945 2927 2918 2916 2947 2835 2964 2912 2720 2927 2893 2986 2820 2911 2812 2848 2864 2861 2783 2887 2914 2831 2759 2874 2893 2886 2819 2814 2933 2802 2845 2861 2864 2804 2797 2855 2841 2872 2844 2793 2883 2807 2797 2871 2777 2729 2709 2727 2967 2710 2834 2767 2730 2794 2732 2780 2900 2718 2635 2836 2816 2743 2734 2827 2779 2819 2780 2742 2824 2738 2718 2813 2725 2729 2724 2753 2723 2810 2710 2720 2664 2624 2730 2603 2760 2686 2647 2634 2651 2729 2623 2703 2702 2767 2755 2712 2658 2656 2710 2596 2740 2735 2594 2605 2659 2663 2740 2642 2598 2652 2695 2641 2704 2619 2611 2590 2667 2712 2662 2661 2702 2701 2779 2592 2644 2647 2681 2705 2797 2717 2647 2664 2697 2715 2586 2679 2676 2664 2655 2644 2643 2590 2654 2705 2644 2577 2585 2629 2664 2679 2639 2593 2719 2598 2599 2580 2669 2718 2613 2696 2602 2688 2589 2492 2705 2690 2628 2601 2656 2561 2607 2573 2727 2588 2710 2582 2542 2484 2628 2658 2552 2567 2588 2545 2647 2589 2578 2631 2549 2552 2659 2602 2545 2620 2662 2566 2695 2685 2756 2573 2644 2526 2652 2543 2585 2698 2670 2709 2601 2632 2638 2581 2582 2591 2664 2687 2618 2682 2668 2582 2672 2590 2709 2719 2687 2646 2650 2563 2543 2659 2555 2669 2664 2606 2672 2610 2629 2571 2621 2640 2607 2711 2667 2659 2524 2612 2683 2538 2528 2548 2671 2669 2644 2701 2555 2694 2575 2638 2558 2543 2633 2526 2558 2687 2768 2486 2574 2593 2586 2570 2572 2573 2629 2696 2557 2525 2644 2528 2687 2656 2732 2676 2595 2693 2558 2677 2522 2472 2601 2525 2535 2608 2525 2608 2551 2580 2565 2626 2536 2548 2510 2536 2572 2553 2586 2555 2561 2691 2533 2546 2488 2525 2591 2566 2542 2603 2410 2504 2541 2550 2579 2460 2589 2439 2547 2515 2511 2586 2538 2461 2498 2507 2579 2630 2516 2514 2499 2566 2550 2670 2571 2507 2487 2505 2445 2498 2473 2482 2553 2513 2492 2652 2410 2451 2455 2549 2462 2430 2425 2398 2494 2395 2572 2434 2465 2468 2431 2499 2418 2456 2454 2333 2379 2348 2351 2377 2419 2370 2376 2431 2314 2404 2336 2283 2335 2321 2263 2384 2342 2294 2384 2341 2391 2304 2342 2391 2209 2315 2313 2327 2324 2244 2254 2287 2249 2223 2204 2255 2210 2195 2187 2183 2111 2159 2185 2133 2113 2205 2232 2116 2206 2140 2167 2059 2161 2054 2059 2129 2184 2115 2140 2140 2179 2128 2113 2090 2054 2072 2025 2182 2050 2195 2122 2127 2149 2063 2024 2129 2032 2019 1983 2110 2091 2143 2088 2090 1956 2103 2158 2038 1973 2056 2025 1988 1982 2032 2051 1968 2070 2027 2004 2038 1979 1968 2014 1964 2032 1982 1998 2033 1925 1955 2012 1975 1901 1884 1943 1951 1888 2020 1940 2010 1991 1931 2022 1980 1970 1949 1951 2044 1947 1938 2020 1945 2008 1976 1947 2048 2027 2010 1922 2073 2055 1980 2116 2174 2059 1993 1997 1985 2018 1965 1946 1948 2021 1962 1875 1931 1911 2040 1944 1949 1958 1971 1969 1982 1928 1955 2014 1962 2033 1964 1959 2044 1992 1982 1985 1970 1935 1959 2039 1934 2003 1870 1937 1934 1863 1893 1905 1893 2038 2000 2072 2034 2042 1995 2041 2025 1962 2065 2028 1998 1959 1969 2054 2082 2019 1991 2025 2038 1993 1972 2054 2018 2065 1927 2044 2095 1979 2048 1974 2075 2005 1968 2002 1936 2012 1969 2008 1955 1954 1919 1868 1965 1946 2029 1926 1848 1907 1966 2008 1899 1920 1953 1911 1908 1933 1966 1989 1950 1938 1951 2037 1990 1906 1880 1989 1989 1981 2018 1958 1851 1998 1982 1941 1970 1952 1993 1974 2034 1923 1982 1876 2023 1958 1948 1954 1963 1985 1988 2002 1952 1889 1982 1890 1996 1995 1968 1981 2011 1999 1890 1984 1972 1914 2015 1949 1950 1982 1965 1992 1964 2039 2030 2009 1909 2019 2093 2070 2084 2107 2060 2020 2032 2078 2154 2092 2044 2023 2127 2117 2196 2218 2152 2181 2194 2206 2163 2210 2222 2123 2178 2220 2199 2142 2098 2098 2115 2044 2064 1966 2068 1958 1990 1900 2055 1887 2046 1944 1899 2038 1949 1937 1973 1906 1960 1856 1970 1870 1809 1907 1832 1973 1847 1929 1846 1864 1853 1814 1879 1806 1849 1840 1826 1793 1794 1783 1808 1711 1777 1782 1781 1850 1843 1717 1759 1733 1786 1685 1731 1723 1716 1741 1747 1752 1712 1766 1735 1716 1627 1682 1704 1743 1808 1691 1691 1734 1648 1734 1737 1697 1761 1815 1771 1744 1725 1748 1700 1717 1734 1712 1746 1740 1749 1715 1707 1700 1725 1727 1715 1743 1742 1753 1717 1672 1760 1756 1798 1749 1704 1767 1770 1757 1805 1809 1724 1735 1729 1692 1796 1846 1797 1741 1775 1830 1784 1800 1810 1735 1799 1787 1775 1736 1778 1708 1746 1761 1775 1667 1724 1735 1719 1695 1711 1638 1692 1687 1733 1676 1617 1721 1685 1718 1679 1638 1703 1630 1644 1660 1615 1682 1551 1635 1667 1626 1556 1648 1494 1496 1592 1625 1571 1514 1572 1592 1676 1644 1582 1542 1520 1510 1568 1513 1578 1499 1455 1588 1610 1567 1555 1561 1602 1602 1679 1664 1641 1611 1536 1623 1523 1517 1640 1552 1596 1595 1546 1589 1609 1566 1596 1543 1591 1600 1643 1674 1587 1591 1637 1619 1636 1622 1677 1632 1514 1616 1551 1615 1578 1602 1597 1545 1486 1524 1564 1605 1515 1476 1583 1445 1563 1534 1562 1439 1463 1501 1500 1383 1470 1519 1499 1471 1433 1498 1518 1537 1459 1473 1418 1422 1485 1493 1447 1364 1468 1451 1523 1452 1396 1512 1455 1548 1438 1458 1456 1398 1472 1448 1448 1495 1464 1476 1427 1449 1491 1396 1404 1493 1464 1372 1412 1437 1445 1410 1472 1500 1441 1496 1456 1511 1496 1539 1583 1573 1591 1545 1598 1674 1717 1739 1717 1808 1881 1952 1940 2140 2279 2314 2452 2739 2919 3064 3357 3516 3575 3693 3718 3690 3804 3715 3526 3668 3511 3416 3232 3312 3195 3106 2972 2986 2800 2690 2820 2681 2629 2594 2628 2516 2569 2501 2482 2537 2451 2400 2403 2338 2331 2271 2222 2133 2192 1962 2027 1979 1941 1790 1828 1740 1771 1657 1664 1564 1563 1599 1576 1467 1465 1440 1379 1485 1405 1426 1394 1394 1443 1435 1422 1373 1380 1302 1295 1361 1402 1344 1393 1416 1376 1409 1394 1352 1320 1391 1390 1372 1368 1423 1364 1348 1346 1411 1388 1343 1418 1414 1374 1344 1394 1352 1353 1432 1350 1371 1350 1372 1402 1426 1418 1427 1465 1480 1567 1617 1531 1597 1677 1691 1661 1688 1756 1764 1770 1764 1927 1861 1881 1862 1823 1860 1828 1808 1757 1674 1817 1656 1706 1712 1704 1635 1596 1596 1713 1680 1576 1641 1643 1618 1599 1631 1617 1492 1600 1557 1551 1547 1509 1604 1535 1456 1445 1438 1409 1457 1391 1412 1399 1433 1392 1386 1384 1397 1308 1355 1376 1369 1321 1309 1320 1306 1264 1253 1272 1270 1309 1278 1228 1253 1171 1291 1220 1194 1258 1239 1206 1248 1223 1244 1247 1243 1177 1234 1197 1313 1239 1209 1240 1259 1297 1305 1324 1310 1293 1327 1361 1462 1440 1520 1508 1590 1479 1506 1588 1554 1573 1623 1505 1525 1527 1552 1530 1560 1472 1407 1416 1357 1362 1370 1414 1369 1416 1336 1387 1341 1345 1307 1357 1415 1360 1397 1368 1429 1425 1387 1439 1439 1416 1397 1484 1519 1595 1550 1615 1594 1610 1635 1606 1632 1585 1551 1525 1537 1595 1576 1497 1540 1490 1457 1569 1503 1461 1400 1489 1348 1368 1343 1372 1332 1315 1251 1319 1253 1275 1276 1229 1222 1169 1246 1207 1119 1172 1155 1188 1173 1154 1134 1122 1143 1152 1139 1123 1171 1133 1181 1125 1109 1106 1132 1092 1133 1085 1133 1121 1156 1159 1160 1175 1105 1074 1148 1253 1185 1197 1137 1176 1071 1216 1154 1162 1242 1144 1207 1135 1156 1177 1137 1215 1121 1110 1063 1207 1196 1122 1136 1124 1159 1084 1183 1124 1136 1079 1126 1157 1150 1101 1142 1080 1063 1148 1119 1076 1117 1133 1158 1080 1136 1110 1116 1164 1090 1074 1094 1195 1095 1068 1046 1111 1094 1085 1131 974 1118 1102 1088 1098 1137 1040 1172 1077 1098 1105 1092 1076 1089 1074 1104 1083 1140 1098 1098 1145 1146 1161 1115 1108 1164 1113 1215 1123 1153 1105 1138 1130 1160 1097 1185 1170 1206 1180 1213 1237 1254 1218 1306 1287 1407 1410 1423 1528 1528 1571 1640 1759 1952 1996 2142 2238 2272 2319 2454 2482 2496 2522 2493 2528 2491 2563 2490 2416 2467 2346 2252 2321 2312 2239 2320 2191 2182 2132 2147 2063 1983 2003 1958 1969 1864 1814 1782 1863 1747 1735 1716 1662 1662 1629 1528 1564 1593 1588 1443 1506 1543 1464 1414 1425 1488 1400 1479 1403 1395 1415 1445 1476 1490 1449 1474 1468 1568 1591 1596 1558 1673 1608 1727 1581 1666 1677 1735 1671 1766 1774 1697 1627 1597 1625 1587 1601 1628 1557 1588 1512 1511 1474 1478 1446 1468 1382 1357 1394 1464 1482 1376 1361 1336 1266 1338 1353 1260 1319 1375 1369 1263 1349 1318 1346 1283 1272 1319 1376 1437 1366 1362 1450 1410 1514 1499 1563 1567 1653 1670 1821 1926 1964 2089 2180 2224 2247 2412 2660 2552 2532 2630 2522 2553 2465 2514 2296 2421 2247 2167 2038 1989 2018 1912 1873 1777 1733 1771 1663 1663 1568 1585 1484 1676 1495 1565 1548 1456 1501 1423 1335 1344 1306 1361 1391 1281 1211 1247 1253 1239 1166 1068 1083 1139 1068 1070 1085 1088 1029 1081 1155 1102 1087 1142 1057 1062 1051 968 1055 1026 1042 1048 1021 1049 1032 1030 1023 975 974 1092 1033 964 1045 1033 993 1014 996 957 972 996 1001 982 948 952 1000 943 1059 963 963 987 986 966 945 965 923 974 989 1007 1025 974 1032 957 1005 1064 1014 972 975 1025 979 989 1025 1018 1033 986 964 971 1077 1036 1053 1038 1050 1028 982 1031 1024 1008 952 1014 1022 1022 1013 1015 984 1025 983 1024 1045 1062 998 1046 921 968 1045 977 1028 1013 966 991 1009 1010 951 933 977 903 930 947 933 957 903 886 977 993 961 944 948 978 940 1025 914 999 985 958 972 1016 931 955 944 921 975 924 891 924 970 894 930 943 939 943 960 981 976 932 981 940 941 960 932 967 954 1008 947 940 1039 1019 985 968 1020 982 978 996 990 993 1011 1014 995 1029 909 982 1043 942 969 934 955 993 981 974 925 964 994 950 1022 978 913 966 940 939 958 916 934 984 905 917 938 980 1002 973 972 979 892 916 922 1004 971 960 921 924 947 906 895 854 993 934 952 846 818 830 885 914 898 904 887 942 909 879 893 931 913 900 984 936 930 898 870 948 903 980 958 916 954 958 964 903 1002 961 1059 943 983 983 1042 1055 1013 1029 1086 1014 1054 1005 1035 1006 1076 1059 965 1016 1027 992 995 963 926 1011 966 935 1044 942 908 960 902 928 998 918 930 897 946 901 930 989 846 913 966 868 934 872 936 889 928 886 906 870 878 847 919 875 894 859 916 891 953 854 908 848 893 809 895 958 831 859 917 817 897 924 885 830 841 836 857 918 860 902 924 854 837 874 861 857 882 879 907 883 941 871 880 905 903 847 941 957 917 944 924 889 876 1012 941 990 868 995 925 992 954 1013 950 1028 1015 990 1056 1043 1076 1069 1029 1057 1021 996 1082 1017 1094 1044 1065 1086 996 1012 1095 1001 1008 1023 1019 1006 956 1000 923 948 928 973 923 987 904 920 875 924 888 901 890 926 923 911 858 965 896 921 879 899 880 866 867 877 834 853 837 834 905 854 837 824 816 806 811 845 880 796 830 843 772 850 880 834 848 829 816 853 850 836 857 763 855 824 866 885 856 862 852 828 885 834 878 843 805 783 842 803 830 890 805 805 851 843 842 818 823 787 903 874 888 894 792 842 819 805 828 798 811 826 835 786 829 784 800 847 831 847 802 829 846 791 859 816 773 806 814 814 805 840 830 840 802 809 826 806 837 765 793 863 851 860 817 778 857 878 822 846 853 856 801 830 850 824 841 879 867 853 904 894 881 908 947 957 997 944 983 998 927 938 973 962 974 911 971 966 939 952 998 934 897 890 942 901 890 884 894 887 892 903 922 929 885 894 879 945 853 899 863 864 806 806 866 825 882 814 908 932 844 798 844 832 828 831 830 830 851 859 829 854 852 834 872 847 856 842 770 800 809 812 860 817 865 818 856 812 820 766 851 797 774 783 800 765 848 810 752 823 803 830 838 773 773 757 760 778 785 815 821 783 794 798 782 765 790 813 734 769 812 782 808 776 774 769 808 806 772 859 770 769 758 758 765 756 788 807 750 784 808 829 784 776 808 848 808 774 792 834 830 778 846 808 902 822 813 800 852 741 771 852 804 811 805 903 809 814 881 833 886 835 857 816 779 839 895 825 871 892 886 929 1006 1047 1104 1284 1267 1267 1227 1141 1042 999 1009 1059 1053 1031 1039 1003 1091 995 930 888 923 914 882 841 870 841 839 836 809 863 828 844 876 806 845 790 781 782 783 842 841 817 835 827 748 811 836 763 799 819 799 793 779 774 839 832 761 828 812 879 785 822 784 784 754 783 826 800 776 793 798 860 783 795 711 768 781 769 752 764 796 735 748 746 745 750 772 802 761 764 765 771 781 724 723 740 723 770 746 770 820 749 710 777 778 781 795 725 758 792 759 782 782 766 759 753 764 803 732 813 737 746 812 772 762 769 772 791 792 783 765 792 757 806 798 755 768 791 806 834 840 775 770 847 793 767 827 775 805 838 862 793 798 877 802 837 782 728 794 779 783 806 733 786 717 785 762 761 775 784 803 833 783 731 771 785 801 774 821 779 822 912 882 870 878 904 964 849 944 967 903 970 932 867 944 860 943 954 897 873 845 879 919 841 849 846 847 834 832 899 854 871 819 876 797 828 867 792 842 820 806 796 781 784 748 741 835 778 790 807 840 800 769 839 847 826 819 788 841 798 790 751 790 815 844 769 890 794 748 830 793 752 824 831 824 834 747 821 808 836 819 804 786 792 854 836 907 801 851 886 869 891 926 896 852 949 955 914 890 928 976 954 953 971 928 988 889 974 982 943 890 946 952 903 937 879 907 869 864 810 866 811 789 815 861 794 797 871 827 859 864 852 843 857 780 862 843 850 825 911 833 872 926 917 952 943 912 978 954 979 973 916 910 911 960 897 905 892 925 855 926 886 882 877 905 871 833 902 798 799 847 874 815 849 830 831 824 822 831 800 861 808 755 849 762 798 779 738 775 751 729 790 792 764 767 757 797 766 754 764 753 735 791 803 808 758 749 848 810 834 781 886 863 829 809 846 889 866 886 837 870 885 883 836 867 831 849 840 873 790 829 845 857 839 833 805 818 751 786 796 825 842 856 807 812 773 821 790 764 769 783 727 748 796 717 805 690 727 728 745 707 709 739 774 765 761 783 776 726 740 753 737 726 694 746 732 744 724 756 755 718 691 745 722 708 749 744 742 729 763 670 713 696 706 689 705 700 715 706 739 683 777 749 712 700 728 743 706 742 687 712 731 729 691 719 729 729 730 697 702 717 755 757 746 723 706 759 740 794 810 761 801 803 799 859 793 868 884 913 960 982 980 1120 1062 1206 1081 1129 1167 1129 1085 1190 1079 1168 1217 1177 1162 1214 1167 1210 1225 1233 1248 1226 1147 1174 1122 1181 1132 1165 1130 1170 1138 1053 1068 1025 1022 1017 1061 981 953 1003 1030 949 923 879 900 912 855 860 865 803 871 844 789 794 824 775 789 787 721 778 718 756 759 726 781 769 752 779 747 748 744 724 714 725 719 687 746 779 738 689 783 685 677 720 718 725 755 725 660 695 712 745 774 703 686 705 677 737 687 721 651 703 661 728 672 655 712 745 711 732 685 726 714 714 666 669 715 681 716 734 731 719 734 707 678 698 621 727 705 685 700 682 661 704 707 663 692 709 680 697 690 701 711 716 665 766 722 721 750 727 793 722 802 775 784 862 797 873 857 878 895 935 973 1078 1063 1049 1084 1070 1007 1005 1013 1050 1021 1030 1072 1086 1087 1110 1082 1088 1100 1099 1043 1065 1028 1000 1030 1010 971 929 944 937 945 917 939 883 876 903 831 861 822 858 797 811 766 861 765 835 843 775 766 762 812 780 783 781 769 757 832 790 810 826 851 836 907 970 942 1021 1009 1033 1128 1071 1074 1100 1056 1101 1025 1080 1070 1067 1051 998 1042 1037 1079 1072 1045 1036 1037 1052 1014 949 1003 978 891 970 971 899 889 923 923 825 877 834 830 838 775 755 779 827 774 773 813 799 800 777 787 741 822 785 746 744 736 769 711 741 709 669 705 713 743 689 724 770 728 732 740 696 730 725 697 711 779 750 737 678 771 715 750 748 737 654 726 679 764 697 718 688 737 680 728 715 752 673 661 712 659 684 725 703 681 677 736 691 682 707 679 702 698 674 733 689 634 678 685 671 721 695 683 667 656 699 650 593 675 668 675 664 629 629 668 653 665 621 660 646 631 669 643 669 688 622 687 669 680 638 660 659 648 659 702 652 703 681 621 651 704 647 698 702 727 670 661 680 673 731 664 690 677 727 689 699 651 716 689 675 713 677 717 691 746 670 685 691 699 637 666 667 619 658 697 704 594 665 678 586 638 620 679 676 683 648 652 649 647 622 655 646 638 630 688 658 662 677 624 676 635 637 615 620 668 644 695 653 713 656 705 710 767 716 726 801 750 798 800 777 771 766 772 759 820 780 806 804 744 818 788 771 795 770 796 784 770 781 718 698 661 714 715 669 741 700 693 679 668 677 719 651 666 664 662 672 664 629 634 671 609 658 671 631 635 644 592 653 657 630 640 632 656 663 634 631 638 635 642 623 619 615 627 593 621 592 634 618 612 644 611 609 639 656 644 650 624 593 574 598 582 577 570 635 625 627 641 563 610 666 658 609 618 604 607 604 570 630 612 665 684 629 636 598 627 623 663 634 618 601 630 615 592 619 649 671 665 631 673 602 634 593 596 636 628 647 649 610 608 636 598 611 606 606 602 618 569 649 584 673 635 625 659 614 656 620 631 678 597 634 636 691 591 618 622 615 647 617 678 661 659 616 606 636 679 664 621 633 623 622 666 626 624 651 612 657 642 632 586 617 575 603 604 584 599 619 597 612 651 600 649 594 606 601 631 618 579 613 593 598 568 581 550 628 553 594 638 613 585 566 648 591 575 576 603 614 579 653 585 604 592 618 619 603 578 597 612 566 640 590 592 611 589 643 624 604 581 562 625 646 621 583 587 609 601 616 584 629 624 571 595 613 614 621 577 600 609 600 622 602 624 608 616 621 634 647 646 601 659 649 653 614 595 585 590 598 603 605 596 614 584 612 586 622 630 587 638 645 634 619 614 605 603 595 652 659 607 635 625 599 608 573 632 634 621 654 661 583 634 583 644 602 677 626 601 645 636 676 647 645 618 653 646 668 605 647 622 697 599 635 616 616 658 638 627 661 634 654 675 640 628 654 685 624 675 629 581 634 629 675 628 625 654 627 644 675 637 646 618 630 655 667 645 635 644 612 645 662 696 664 657 658 656 599 618 633 654 621 647 658 656 671 609 647 651 597 610 651 646 666 663 656 671 707 640 696 635 700 694 654 689 759 716 745 754 812 808 825 807 914 878 866 827 828 813 813 878 820 825 882 898 849 864 875 849 856 836 850 876 853 848 890 878 884 885 871 868 905 893 805 846 863 854 860 791 882 810 802 793 804 786 777 751 736 783 764 650 707 735 662 695 686 682 659 689 622 677 633 614 607 604 681 599 616 667 634 577 587 614 634 599 598 594 604 659 616 559 587 617 576 611 598 577 586 613 589 589 594 588 630 590 615 583 585 593 584 614 606 570 568 594 642 564 586 581 602 559 590 544 636 591 609 621 606 617 579 560 588 629 583 654 635 625 656 638 619 639 640 569 599 554 614 587 622 554 578 604 623 628 624 624 521 647 584 612 597 576 594 607 616 547 589 552 613 569 557 573 517 597 569 574 602 553 596 641 604 567 564 555 608 588 600 546 584 576 588 579 586 560 568 580 571 595 582 576 533 605 568 596 571 573 582 585 540 565 574 608 619 596 576 612 637 583 609 573 586 560 591 575 576 575 592 585 541 579 613 587 638 610 612 610 575 580 598 591 601 589 584 617 585 598 579 622 629 541 584 587 620 600 581 524 594 602 575 595 599 618 561 594 568 546 585 527 585 599 590 617 617 623 612 678 618 629 681 612 716 608 633 679 692 691 647 692 712 711 688 660 655 680 647 676 635 696 692 670 673 659 699 667 694 657 710 749 688 711 688 686 694 651 690 629 670 638 656 644 649 592 653 648 644 632 699 643 621 615 631 630 602 624 625 604 673 620 672 598 622 632 567 624 633 641 600 617 596 605 587 580 589 647 577 589 589 606 604 595 575 569 629 605 569 578 578 589 578 625 598 519 505 554 558 611 591 553 595 542 566 593 541 588 533 595 564 544 565 538 572 553 557 547 553 563 554 533 575 561 600 540 583 571 565 544 608 574 576 553 581 552 549 579 514 548 563 540 509 534 546 541 559 559 598 578 574 579 576 580 531 555 529 547 523 537 516 557 531 523 557 551 562 572 528 596 571 545 558 595 536 544 575 590 606 556 640 600 607 621 622 601 625 599 532 512 638 620 630 591 623 608 595 616 601 615 603 589 586 632 616 536 616 587 573 575 528 522 550 571 567 610 565 529 585 531 585 507 515 560 593 563 552 571 546 531 538 531 554 553 504 543 617 525 560 544 532 545 577 581 522 528 555 559 536 536 542 585 498 563 532 541 555 570 568 548 580 557 506 534 565 537 545 546 506 566 562 589 559 571 523 627 576 609 600 615 571 633 569 592 621 665 663 652 665 700 681 706 699 706 627 653 659 650 609 638 659 634 617 662 647 625 690 703 673 670 633 637 615 626 669 612 609 611 614 660 595 598 574 595 555 554 598 581 566 570 572 560 555 572 542 595 564 559 578 536 556 607 581 530 535 581 532 541 518 566 564 543 533 541 524 537 539 539 535 545 547 518 525 507 543 547 541 517 524 505 537 524 527 546 563 521 552 542 566 533 538 530 548 494 604 461 528 532 518 483 509 546 513 528 552 522 489 537 565 561 537 558 559 516 519 584 578 548 535 537 554 561 575 550 519 580 557 583 610 537 564 498 522 549 555 567 545 561 590 582 522 539 565 539 614 561 529 576 528 515 528 530 577 556 567 560 516 591 520 493 556 509 538 529 510 486 573 537 545 539 532 505 575 510 499 498 521 515 503 490 500 505 531 517 512 495 506 515 490 530 540 572 565 512 542 538 517 558 517 553 528 548 533 498 551 514 524 583 562 578 590 550 548 542 534 548 557 543 533 515 599 544 525 532 514 551 556 573 585 582 565 529 571 536 515 521 551 542 502 550 511 531 548 532 553 513 498 531 518 551 508 537 467 490 552 504 520 504 511 521 488 555 524 491 559 514 529 521 495 544 509 487 525 521 537 570 505 526 545 446 507 485 529 537 520 488 487 511 494 497 516 506 516 519 489 514 486 507 502 515 528 491 505 520 540 478 518 530 479 515 520 495 479 521 519 521 502 522 505 515 471 568 494 486 530 521 496 520 508 488 460 463 437 540 474 494 542 543 490 506 477 489 540 532 538 540 483 487 454 454 531 497 504 501 511 523 523 533 547 517 505 541 520 530 458 489 498 499 501 497 487 491 502 486 501 521 506 522 509 507 469 510 513 485 502 519 511 516 517 488 511 514 521 515 541 479 471 509 531 548 505 490 518 497 522 486 533 519 524 520 492 489 477 483 525 509 475 490 525 516 515 481 537 474 510 502 481 521 493 492 509 495 462 500 497 476 504 457 496 524 531 482 546 528 457 513 488 512 486 548 485 543 465 523 523 479 509 534 492 522 511 525 484 522 486 517 507 488 519 516 544 543 474 521 480 539 542 486 574 514 532 508 514 535 522 492 528 496 509 476 520 496 500 501 489 501 433 499 498 513 508 496 529 493 491 478 512 502 464 502 482 513 486 481 486 499 491 551 503 514 521 525 465 480 555 463 488 524 479 496 469 498 503 458 510 474 482 491 513 516 491 491 513 474 480 517 520 485 520 514 481 486 496 491 490 479 561 506 506 532 468 502 483 460 495 519 512 532 513 470 514 488 489 495 471 546 482 509 510 454 490 491 473 506 458 477 483 475 486 477 491 484 436 511 490 496 531 531 503 465 490 477 473 479 497 500 515 486 487 497 520 516 471 519 462 488 484 463 461 482 481 484 466 511 526 509 474 528 506 497 488 527 472 522 462 511 500 498 503 510 479 471 531 507 496 476 491 522 463 540 526 499 484 497 481 508 485 555 464 487 496 522 530 499 485 509 490 504 484 464 478 552 505 479 471 456 507 505 500 496 481 471 487 489 471 456 519 529 490 473 470 474 478 467 449 457 513 489 512 472 484 489 528 485 498 513 524 529 498 514 526 510 499 493 469 488 526 475 531 487 493 481 529 508 527 480 578 495 498 524 526 609 566 502 530 592 598 526 509 565 600 599 541 576 596 541 554 552 533 554 545 556 540 560 559 567 574 618 552 571 537 550 547 532 558 542 577 558 513 533 479 575 542 548 521 560 538 543 550 493 543 528 524 506 531 476 515 569 522 533 528 549 497 533 505 542 541 521 492 518 579 504 510 475 502 522 514 518 486 522 517 492 480 486 507 481 493 531 492 514 444 492 524 484 504 486 471 463 496 528 506 514 501 535 497 505 479 488 489 490 536 515 512 512 526 502 484 445 496 519 472 489 466 490 485 520 515 501 475 445 479 445 503 484 484 490 488 488 520 461 495 459 530 473 519 531 451 501 518 505 507 512 529 451 481 512 471 550 466 515 474 517 456 542 470 539 505 506 507 477 507 520 505 495 539 503 477 460 504 473 469 491 514 494 498 494 493 480 464 475 512 529 495 530 478 472 487 488 543 499 509 432 509 505 487 493 462 556 460 486 462 487 499 500 524 488 443 460 513 506 503 477 474 528 436 516 498 455 511 484 523 489 525 493 491 506 541 511 452 471 526 532 494 512 459 514 492 538 494 513 492 454 504 506 500 489 531 526 514 531 622 518 537 532 537 549 553 534 555 523 494 518 538 491 532 478 514 506 549 509 531 492 510 507 532 547 536 495 502 492 532 474 539 526 508 512 533 526 502 498 491 511 506 487 489 456 491 523 476 481 500 499 513 500 505 531 501 543 528 509 532 496 549 574 549 563 534 557 568 537 565 548 498 552 559 567 589 565 548 539 575 543 564 590 538 614 593 606 586 593 593 544 570 534 593 576 560 570 564 527 529 549 560 544 525 548 541 488 505 516 516 527 493 576 523 511 505 557 498 535 542 527 546 495 497 544 476 486 503 546 537 498 501 515 494 536 492 507 504 508 511 506 507 495 507 498 481 456 492 481 535 426 484 466 499 536 469 510 480 451 488 491 510 503 476 483 507 477 514 493 530 477 487 488 486 520 501 482 512 489 509 487 492 452 499 526 471 503 485 513 505 503 485 515 496 468 514 538 484 495 478 477 459 493 509 514 542 529 506 489 553 522 507 489 462 518 486 510 493 487 513 477 496 528 497 482 520 492 494 529 492 555 523 506 550 548 505 539 514 515 534 551 578 524 544 500 565 455 566 566 537 540 519 513 534 517 522 481 557 511 543 512 509 527 503 571 534 558 564 512 544 514 533 562 565 543 477 477 506 498 514 529 518 541 520 466 480 543 504 500 529 538 501 516 464 461 525 554 540 531 494 554 485 519 495 517 533 552 516 515 490 546 501 514 526 517 490 585 484 597 533 501 523 501 572 542 510 496 549 504 517 509 528 526 566 546 507 551 568 552 536 545 549 557 555 544 538 503 531 562 547 525 545 542 522 522 514 479 555 549 530 501 533 484 491 566 515 533 503 501 528 509 512 498 529 498 505 486 482 509 519 492 513 506 503 520 496 508 494 522 500 482 512 489 529 521 505 464 496 496 502 482 484 518 476 496 494 514 490 486 496 509 452 510 463 510 491 501 494 473 513 498 488 493 454 493 530 506 526 501 455 507 497 503 558 511 515 524 506 508 509 480 497 536 499 503 537 497 480 485 545 481 526 508 533 547 530 520 483 573 541 536 473 487 497 477 548 559 531 519 516 549 553 539 549 539 524 544 524 543 552 537 561 547 563 579 599 575 556 553 548 559 537 564 596 581 570 572 563 514 530 614 584 518 575 544 546 545 539 525 558 546 528 537 501 512 521 588 517 548 528 557 532 526 504 496 568 522 490 509 508 533 548 556 497 494 481 505 514 473 488 531 503 539 484 527 500 514 501 513 518 530 497 490 498 493 519 572 563 523 524 456 522 478 535 492 512 530 521 476 476 481 503 493 469 477 522 496 514 469 481 511 494 516 521 505 554 467 507 491 468 469 516 459 502 485 531 534 492 495 500 486 483 480 491 484 463 471 484 470 490 484 428 435 436 483 470 499 471 534 485 488 480 499 503 521 470 505 508 496 465 511 484 481 474 507 496 476 544 502 512 474 489 462 501 538 458 532 463 504 492 491 469 499 495 501 501 532 538 509 466 515 523 548 538 484 476 511 547 550 524 476 478 503 539 495 510 489 482 502 556 498 531 511 515 488 489 536 519 480 502 516 510 511 523 534 542 552 570 494 496 521 535 525 508 478 503 528 490 547 494 514 506 521 554 555 548 610 569 599 566 568 573 562 567 570 573 543 545 557 563 527 526 554 545 530 551 549 565 540 557 530 539 531 534 550 568 539 562 558 534 549 498 553 533 567 502 555 542 550 564 555 520 541 522 570 539 561 542 555 511 494 533 516 517 561 536 514 477 480 486 483 492 565 554 524 532 534 460 557 489 454 502 507 503 515 473 491 525 489 513 520 465 539 458 459 491 525 522 477 481 486 471 491 470 484 457 513 480 484 499 472 467 480 468 446 498 428 455 508 509 517 480 501 487 524 454 506 513 480 525 481 515 529 486 503 499 471 492 513 514 490 485 529 486 479 484 522 482 559 552 506 495 508 508 485 480 433 489 445 501 487 481 480 519 500 498 455 483 501 483 527 515 494 510 492 503 489 520 476 494 529 490 516 466 478 450 462 486 481 465 444 454 476 455 453 469 483 469 487 471 465 476 475 519 476 467 445 452 440 467 502 487 498 532 464 468 458 477 495 495 470 466 513 502 491 499 466 482 490 517 465 456 483 484 484 508 428 447 507 449 462 473 537 503 448 510 442 479 499 474 500 465 488 490 484 463 453 473 509 523 451 464 450 498 458 488 481 482 478 466 447 462 443 469 429 465 428 439 490 452 482 455 439 467 518 450 498 445 470 440 496 499 490 490 457 516 465 477 483 487 471 470 457 453 476 491 429 468 480 475 437 472 469 446 458 496 466 469 454 458 435 506 467 478 480 525 463 472 455 532 460 518 535 512 471 470 505 511 520 512 504 562 503 560 556 529 499 505 549 548 568 536 466 508 464 460 490 528 520 479 518 503 484 497 508 569 501 541 497 524 518 487 502 491 507 466 449 509 520 487 493 454 495 486 466 479 485 519 493 472 468 493 513 439 516 464 447 471 452 487 467 441 452 476 443 507 479 445 440 495 434 479 437 468 442 462 501 458 448 450 482 517 451 480 493 502 464 469 499 506 519 489 498 490 507 494 513 501 547 555 525 504 515 515 555 506 491 499 473 490 508 479 478 513 541 482 514 504 516 501 492 534 491 508 493 545 483 528 484 490 520 537 506 560 483 534 459 457 530 518 530 505 490 500 493 503 491 475 493 459 457 511 478 452 461 474 495 490 450 480 502 486 476 474 488 489 501 498 525 472 472 473 492 473 487 444 500 468 466 434 485 490 469 471 441 478 450 472 525 479 438 518 452 496 473 438 521 515 465 472 442 459 443 475 457 482 486 468 479 433 459 516 492 509 472 443 465 469 491 463 461 464 442 476 478 449 418 451 467 485 483 482 439 501 492 456 477 483 462 497 426 410 457 462 430 432 494 450 470 462 411 483 462 435 459 470 465 470 500 476 473 490 448 442 454 463 483 465 443 476 461 432 457 452 437 472 433 489 439 429 435 395 481 460 454 468 499 462 480 490 467 436 438 471 489 414 480 456 468 440 424 486 421 467 472 441 484 464 440 465 417 477 470 465 473 453 456 452 432 470 465 482 464 473 462 483 463 449 496 440 528 442 452 469 460 433 482 476 462 470 473 487 501 506 451 462 489 442 462 473 453 441 452 449 446 451 462 485 456 450 442 480 467 441 488 484 444 478 449 475 496 464 436 461 430 454 490 457 443 434 437 485 425 442 424 441 465 442 466 505 430 445 442 481 439 450 482 505 505 481 413 471 478 472 496 455 481 458 469 437 429 470 464 467 450 467 478 443 483 467 457 470 426 448 495 450 460 473 459 432 452 466 457 431 446 437 482 465 471 454 418 478 371 463 486 459 441 464 443 434 454 472 472 481 452 454 455 493 486 462 445 460 433 472 482 500 479 495 493 455 495 469 503 497 501 501 465 535 476 489 458 492 472 470 485 539 486 502 432 528 463 497 458 458 442 443 455 493 476 507 492 456 514 486 465 463 468 466 501 494 438 481 473 466 507 445 459 445 484 415 438 465 459 430 473 443 429 454 456 467 478 473 423 455 439 434 446 412 466 426 463 436 488 475 448 472 427 450 455 434 398 469 451 477 469 455 483 417 467 463 438 463 405 451 448 470 404 447 421 429 460 469 452 476 460 476 505 474 457 436 466 387 479 419 509 485 466 448 457 457 455 446 451 448 491 462 515 404 460 480 444 487 430 483 486 428 470 471 499 469 536 481 499 497 482 518 514 511 497 456 475 475 517 510 526 486 547 456 487 486 481 522 504 497 508 486 480 521 513 532 541 515 505 508 479 562 513 484 490 514 494 483 504 442 464 463 493 504 490 482 469 489 483 498 499 510 479 489 480 464 486 476 440 527 493 504 510 480 483 438 477 462 452 457 453 426 468 491 440 495 499 492 436 475 462 460 480 432 447 480 465 482 449 492 421 457 449 497 453 489 423 438 422 447 453 438 413 477 454 475 411 458 436 478 449 479 432 448 459 448 478 459 448 436 447 446 460 445 427 419 439 433 457 418 429 472 436 472 448 435 453 409 460 459 464 439 475 467 426 454 469 424 431 433 463 438 447 439 451 465 462 423 475 426 434 456 468 426 482 474 442 423 459 421 480 459 438 483 466 464 433 421 457 472 454 455 404 443 434 459 433 452 469 486 444 432 427 432 467 443 440 486 449 491 458 478 489 462 474 484 457 479 504 450 467 462 477 437 441 458 502 425 479 421 471 475 443 479 455 473 440 434 424 455 470 458 472 448 441 485 410 474 452 467 459 486 427 478 481 476 463 462 459 458 505 462 465 469 456 418 452 419 475 468 439 461 472 484 484 458 472 456 452 451 452 453 446 422 482 457 435 457 475 472 445 447 439 444 461 462 440 451 462 441 413 473 440 436 434 438 469 424 450 442 433 479 451 408 470 442 484 457 465 449 458 452 463 491 464 466 443 454 461 428 456 514 473 400 446 438 480 449 437 467 447 467 487 489 452 473 448 440 481 500 499 499 464 468 475 465 426 485 445 491 434 458 476 479 466 510 480 463 495 479 466 416 481 447 464 499 493 462 503 518 456 526 480 462 463 490 422 420 444 467 426 431 458 466 456 520 437 421 422 402 436 477 476 418 452 493 429 433 451 436 459 466 455 439 497 472 469 445 428 452 445 474 413 433 438 436 419 456 419 460 460 447 456 415 415 435 446 431 409 433 464 426 488 442 438 468 444 427 433 459 445 417 405 411 437 466 424 428 431 441 425 449 453 465 451 458 427 464 425 429 433 480 453 427 469 429 417 455 409 471 475 397 436 410 462 444 416 466 441 468 398 424 468 454 471 432 464 499 455 446 502 496 476 468 508 445 484 438 459 523 483 483 490 436 474 464 470 465 467 459 468 442 489 465 467 459 490 455 409 453 458 453 482</counts>
			</dataPoints>
		</scan>
	</xrdMeasurement>
</xrdMeasurements>
