<?xml version="1.0"?>
<xrdMeasurements xmlns="http://www.xrdml.com/XRDMeasurement/2.3" xmlns:xsi="http://www.w3.org/2001/XMLSchema-instance" xsi:schemaLocation="http://www.xrdml.com/XRDMeasurement/2.3 http://www.xrdml.com/XRDMeasurement/2.3/XRDMeasurement.xsd" status="Completed" recordIdentifier="{A4852AB3-EFC9-48A6-94AC-B7C6E25F3717}">
	<comment>
		<entry/>
	</comment>
	<sample type="To be analyzed">
		<id>GPSS_Li1p55Fe0p85Ta0p15Cl4_110325_69093a3ff040177efa2b52e2</id>
		<name></name>
		<preparedBy></preparedBy>
	</sample>
	<xrdMeasurement measurementType="Scan" status="Completed" sampleMode="Reflection">
		<usedWavelength intended="K-Alpha 1">
			<kAlpha1 unit="Angstrom">1.5405980</kAlpha1>
			<kAlpha2 unit="Angstrom">1.5444260</kAlpha2>
			<kBeta unit="Angstrom">1.3922500</kBeta>
			<ratioKAlpha2KAlpha1>0.5000</ratioKAlpha2KAlpha1>
		</usedWavelength>
		<incidentBeamPath>
			<radius unit="mm">145.00</radius>
			<xRayTube id="1010048" name="Empyrean Cu LFF HR (9430 033 7310x)">
				<tension unit="kV">40.0</tension>
				<current unit="mA">15.0</current>
				<anodeMaterial>Cu</anodeMaterial>
				<focus type="Line">
					<length unit="mm">12.0</length>
					<width unit="mm">0.4</width>
					<takeOffAngle unit="deg">6.0</takeOffAngle>
				</focus>
			</xRayTube>
			<sollerSlit id="21010002" name="Soller slits 0.04 rad.">
				<opening unit="rad">0.0400</opening>
			</sollerSlit>
			<mask id="22031000" name="Fixed mask 13 mm">
				<width unit="mm">9.00</width>
			</mask>
			<divergenceSlit id="22120001" name="Divergence slit 1°" xsi:type="fixedDivergenceSlitType">
				<distanceToSample unit="mm">50.00</distanceToSample>
				<height unit="mm">1.52</height>
			</divergenceSlit>
		</incidentBeamPath>
		<sampleMovement xsi:type="spinningSampleMovementType">
			<spinnerRevolutionTime unit="seconds">1.0</spinnerRevolutionTime>
		</sampleMovement>
		<diffractedBeamPath>
			<radius unit="mm">145.00</radius>
			<antiScatterSlit id="22090040" name="AS slit 9 mm (PIXcel)" xsi:type="fixedAntiScatterSlitType">
				<height unit="mm">9.00</height>
			</antiScatterSlit>
			<sollerSlit id="21020003" name="Large Soller slits 0.04 rad.">
				<opening unit="rad">0.0400</opening>
			</sollerSlit>
			<filter id="20030001" name="Large beta-filter Nickel">
				<material>Ni</material>
				<thickness unit="mm">0.020</thickness>
			</filter>
			<detector id="7010019" name="PIXcel1D-Medipix3 detector" xsi:type="rtmsDetectorType">
				<phd unit="keV">
					<lowerLevel>4.02</lowerLevel>
					<upperLevel>11.27</upperLevel>
				</phd>
				<mode>Scanning</mode>
				<activeLength unit="deg">5.542</activeLength>
			</detector>
		</diffractedBeamPath>
		<scan appendNumber="0" mode="Continuous" scanAxis="Gonio" status="Completed">
			<header>
				<startTimeStamp>2025-11-05T11:58:57-08:00</startTimeStamp>
				<endTimeStamp>2025-11-05T12:07:04-08:00</endTimeStamp>
				<author>
					<name>AutomatedUser</name>
				</author>
				<source>
					<applicationSoftware version="1.7b (136)">PANalytical Aeris Instrument Suite</applicationSoftware>
					<instrumentControlSoftware version="3.2.00000000 20240306">AERIS</instrumentControlSoftware>
					<instrumentID>950485</instrumentID>
				</source>
			</header>
			<dataPoints>
				<positions axis="2Theta" unit="deg">
					<startPosition>10.00943322</startPosition>
					<endPosition>99.99442286</endPosition>
				</positions>
				<positions axis="Omega" unit="deg">
					<startPosition>5.00471661</startPosition>
					<endPosition>49.99721143</endPosition>
				</positions>
				<commonCountingTime unit="seconds">12.495</commonCountingTime>
				<counts unit="counts">3148 2970 3000 3090 3056 3008 3086 3137 3169 3058 3036 3001 3150 3241 3100 3172 3250 3090 3143 3187 3120 3180 3155 3190 3155 3121 3188 3197 3174 3039 3123 3180 3129 3129 3117 3153 3182 3141 3153 3201 3235 3245 3149 3208 3240 3129 3188 3226 3231 3212 3285 3264 3188 3238 3309 3232 3235 3203 3266 3196 3275 3270 3282 3232 3270 3327 3294 3278 3284 3268 3425 3433 3316 3415 3338 3312 3375 3328 3401 3478 3356 3473 3390 3364 3307 3466 3318 3419 3403 3414 3416 3351 3415 3403 3398 3356 3347 3412 3484 3388 3470 3332 3427 3476 3345 3404 3381 3387 3294 3465 3356 3433 3363 3391 3392 3376 3402 3426 3411 3346 3421 3427 3385 3225 3440 3403 3418 3377 3407 3274 3399 3367 3327 3503 3436 3495 3436 3369 3512 3462 3387 3451 3400 3440 3427 3419 3439 3370 3325 3320 3274 3448 3331 3278 3464 3411 3513 3458 3487 3464 3329 3298 3383 3370 3428 3448 3427 3505 3470 3360 3323 3401 3311 3566 3347 3356 3452 3333 3356 3496 3377 3426 3347 3440 3311 3414 3465 3466 3460 3280 3450 3512 3392 3431 3449 3366 3441 3454 3452 3365 3413 3447 3413 3341 3372 3495 3458 3465 3397 3371 3379 3306 3376 3341 3403 3320 3469 3414 3348 3449 3354 3272 3206 3380 3387 3309 3331 3373 3338 3300 3347 3415 3372 3467 3347 3383 3349 3335 3309 3366 3378 3258 3311 3274 3340 3353 3361 3322 3337 3200 3411 3234 3302 3360 3324 3392 3314 3225 3318 3292 3334 3237 3425 3278 3357 3208 3303 3306 3251 3324 3356 3307 3277 3395 3292 3364 3314 3238 3288 3313 3322 3345 3336 3386 3277 3331 3307 3309 3278 3283 3373 3298 3281 3280 3382 3323 3348 3378 3412 3294 3297 3361 3375 3324 3293 3477 3393 3373 3405 3342 3342 3449 3382 3424 3395 3377 3329 3364 3361 3485 3323 3443 3370 3520 3464 3487 3387 3419 3460 3529 3418 3465 3502 3380 3522 3451 3473 3518 3531 3520 3473 3560 3529 3531 3586 3635 3427 3517 3518 3524 3424 3549 3498 3559 3564 3522 3494 3616 3636 3625 3648 3559 3559 3704 3524 3568 3591 3619 3549 3668 3592 3584 3615 3654 3531 3676 3748 3689 3656 3617 3639 3794 3643 3718 3814 3665 3758 3673 3636 3714 3850 3680 3725 3775 3730 3655 3732 3730 3852 3830 3671 3829 3796 3787 3685 3738 3640 3786 3671 3754 3844 3812 3878 3827 3738 3978 3850 3946 3752 3890 3959 3898 4073 3859 4141 3901 4059 4068 4209 4222 4119 4016 4193 4252 4330 4289 4234 4468 4455 4441 4524 4603 4478 4525 4578 4673 4635 4624 4588 4647 4726 4532 4703 4838 4910 4862 4714 4967 5126 5137 5235 5361 5302 5379 5390 5278 5451 5463 5457 5403 5309 5150 5406 5141 5378 5281 5095 5260 5158 5146 4911 4875 4882 4824 4854 4736 4609 4636 4719 4618 4591 4615 4472 4646 4660 4563 4537 4598 4595 4541 4502 4304 4356 4259 4221 4313 4218 4209 4057 4168 3974 4017 3994 3864 3934 3809 3900 3699 3781 3624 3699 3659 3636 3670 3563 3682 3643 3577 3705 3668 3598 3502 3616 3568 3659 3643 3652 3484 3687 3598 3561 3568 3587 3605 3583 3708 3486 3470 3524 3607 3415 3517 3482 3522 3585 3445 3580 3531 3467 3520 3488 3427 3487 3420 3414 3564 3391 3387 3355 3313 3386 3456 3304 3290 3363 3308 3409 3416 3429 3348 3321 3401 3352 3316 3331 3378 3344 3329 3367 3299 3297 3337 3351 3277 3360 3338 3347 3256 3292 3326 3429 3197 3279 3245 3333 3187 3279 3241 3224 3215 3284 3302 3311 3242 3277 3298 3236 3224 3322 3197 3299 3220 3248 3298 3195 3175 3207 3254 3263 3182 3287 3255 3233 3363 3222 3292 3218 3207 3327 3281 3225 3242 3311 3158 3282 3254 3343 3336 3203 3240 3249 3267 3345 3234 3266 3339 3266 3221 3316 3230 3324 3288 3288 3243 3264 3334 3320 3329 3265 3311 3258 3362 3408 3161 3271 3175 3174 3285 3232 3125 3353 3264 3301 3208 3257 3217 3263 3175 3279 3287 3136 3225 3327 3158 3303 3309 3186 3229 3183 3160 3332 3129 3143 3205 3292 3186 3167 3119 3179 3228 3133 3180 3097 3194 3049 3147 3093 3141 3087 3123 3265 3152 3268 3153 3121 3158 3050 3208 3210 3203 3275 3011 3182 3111 3205 3095 3098 3273 3111 3106 3102 3115 3081 3213 3184 3132 3105 3052 3144 3088 3090 3198 3299 3208 3209 3178 3066 3171 3171 3175 3094 3186 3066 3127 3173 3127 3094 3225 3094 3177 3111 3084 3086 3155 2994 3069 3155 3175 3082 3207 3144 3094 3124 3062 2976 3118 3142 3106 3131 3141 3134 3137 3147 3122 3095 3058 3110 3097 3114 3120 3108 3133 3253 3047 3075 3111 3103 3114 3121 3054 3159 3014 3043 3015 3112 3060 3052 3079 3025 3093 3014 2979 3086 3119 3058 3115 3054 3039 3009 3048 2926 2997 3000 2963 3046 2915 3047 3064 3001 2997 3195 3054 3051 3107 3030 3173 3021 3039 3041 3143 2985 3124 3011 2974 3031 3157 2937 3029 2967 2945 2939 2987 2944 3051 3104 3016 2983 3058 3122 2931 2924 3007 2960 3105 3003 2997 3089 2910 2982 3009 2956 2900 2948 3022 3074 2870 2918 3078 3089 2947 2911 2881 2933 2922 2960 3035 2995 3016 2910 2919 2944 2941 3050 2909 3040 3019 2968 2913 2921 2990 2960 2986 2958 2883 2997 2858 2992 2942 2953 2978 2956 2904 3020 2930 2994 2950 2983 2921 2822 2968 2967 3010 2888 2954 2922 2927 2995 2969 2975 2987 2925 2866 2961 2929 2898 2857 2881 2922 2935 3042 2965 2938 2903 2777 2952 2866 3057 2934 2877 2962 2946 2886 2978 2966 2935 3029 2872 2876 2934 2899 2888 2992 2883 3025 2928 2996 2938 2896 2974 2829 2947 2853 3035 2953 3031 2977 3010 2861 2933 2884 2927 2879 2964 2853 2957 2993 2969 2951 2870 2971 2868 2902 2941 2903 2898 2985 2936 2954 2912 2851 2918 2929 2913 2896 2837 2915 2873 2917 2891 2910 3013 2823 2934 2876 2955 2915 2846 3058 2842 2969 2917 2865 2908 2824 2901 3022 2825 3010 2817 2907 2959 2960 2892 2865 3011 2902 2922 2965 2964 2875 2987 2818 2899 2966 2937 2881 2882 2883 2877 2976 2986 2890 2947 2961 2903 2886 2884 2961 2921 2899 2946 2940 2994 3029 2998 2933 2913 2826 2912 2830 2979 2980 2854 2961 2850 2893 2851 2944 2927 2928 2947 2832 2912 2872 2924 2967 2960 2896 2847 2888 2831 2938 3009 2932 2856 2943 2883 2876 2813 2935 2895 2902 2900 2808 2860 2898 2880 2932 2836 2962 2921 2911 2861 2766 2899 2867 2890 2833 2907 2840 2779 2936 2815 2837 2871 2898 2840 2917 2869 2852 2797 2846 2854 2803 2985 2799 2790 2825 2793 2830 2777 2830 2744 2872 2759 2890 2801 2802 2854 2781 2820 2825 2853 2810 2702 2766 2785 2825 2735 2731 2730 2795 2754 2768 2685 2765 2724 2730 2741 2743 2734 2776 2785 2739 2629 2730 2664 2735 2684 2640 2753 2717 2669 2793 2768 2698 2705 2637 2645 2682 2637 2722 2699 2729 2593 2680 2551 2668 2656 2716 2629 2676 2626 2645 2628 2547 2687 2536 2664 2526 2566 2582 2605 2506 2575 2521 2532 2473 2514 2567 2589 2626 2484 2547 2591 2533 2566 2555 2526 2466 2510 2529 2626 2495 2519 2557 2540 2483 2374 2450 2520 2527 2588 2513 2460 2473 2512 2462 2464 2518 2442 2444 2416 2440 2484 2445 2405 2520 2426 2427 2354 2470 2457 2401 2480 2500 2419 2401 2490 2475 2482 2500 2428 2376 2555 2456 2467 2383 2376 2395 2370 2455 2373 2399 2402 2422 2316 2401 2431 2358 2502 2431 2467 2422 2472 2490 2361 2446 2411 2442 2387 2362 2324 2406 2391 2386 2398 2385 2362 2345 2396 2461 2415 2487 2385 2338 2493 2337 2407 2420 2329 2375 2235 2418 2403 2402 2435 2265 2475 2415 2439 2380 2369 2398 2288 2466 2330 2395 2387 2261 2357 2411 2385 2359 2355 2432 2406 2336 2411 2376 2328 2423 2371 2249 2294 2295 2411 2384 2280 2310 2344 2365 2288 2292 2368 2369 2269 2250 2380 2376 2264 2335 2310 2373 2299 2241 2398 2364 2318 2415 2308 2307 2342 2317 2311 2327 2353 2326 2267 2357 2353 2293 2316 2304 2320 2281 2285 2210 2398 2325 2373 2423 2400 2370 2326 2310 2390 2280 2429 2412 2333 2319 2366 2359 2392 2333 2334 2338 2327 2383 2399 2444 2285 2465 2356 2313 2331 2396 2376 2324 2327 2256 2345 2436 2358 2372 2272 2321 2371 2407 2354 2340 2380 2291 2388 2262 2415 2324 2413 2306 2360 2405 2366 2346 2275 2405 2376 2413 2343 2388 2391 2354 2408 2308 2359 2373 2389 2245 2272 2418 2263 2322 2313 2416 2298 2335 2298 2465 2260 2360 2383 2388 2319 2303 2358 2386 2327 2314 2354 2362 2352 2393 2294 2349 2335 2382 2368 2345 2366 2326 2277 2359 2335 2375 2402 2296 2405 2364 2361 2349 2305 2306 2251 2259 2352 2452 2265 2414 2339 2278 2363 2280 2361 2271 2368 2287 2230 2246 2229 2297 2247 2330 2372 2320 2261 2335 2203 2300 2245 2260 2289 2297 2256 2266 2213 2302 2294 2142 2198 2236 2174 2213 2280 2158 2208 2229 2213 2197 2203 2197 2227 2197 2203 2262 2195 2236 2195 2175 2246 2240 2188 2181 2080 2220 2093 2158 2175 2270 2175 2162 2126 2191 2199 2110 2200 2234 2169 2071 2147 2114 2144 2186 2040 2084 2108 2134 2059 2156 2101 2131 2040 2072 2143 2129 2101 2152 2092 2043 2109 2056 2197 2159 2133 2155 2105 2007 2090 2047 1996 2052 2117 2095 2029 2060 2076 2069 2072 2040 2081 2125 2162 2085 2069 2062 2014 2117 1994 2009 2110 2062 2062 2138 1991 2080 2106 2137 2110 2128 2013 2061 2035 2040 2071 2086 2027 1975 1982 1984 2025 2048 2035 2044 1999 2039 1999 2018 2012 2026 2051 2010 2040 2003 1956 2030 1980 1962 2118 2026 2086 2081 2128 2113 2075 2106 2113 2212 2151 2162 2329 2188 2238 2380 2327 2352 2333 2377 2350 2326 2334 2408 2414 2319 2390 2391 2357 2375 2375 2464 2252 2359 2356 2448 2275 2251 2376 2243 2272 2356 2359 2330 2273 2356 2246 2361 2219 2306 2298 2312 2225 2225 2283 2195 2155 2130 2080 2213 2084 2186 2143 2131 2157 2084 2144 2075 2187 2070 2128 2159 2014 2049 1995 2081 2008 2085 2046 1992 2032 1975 2055 2024 1943 2006 2018 1927 1855 1883 2007 1893 1900 2014 1861 1931 1861 1998 1989 1946 1960 1932 1885 1894 1933 1886 1953 1888 1961 1857 1959 1987 1866 1996 1972 1962 1859 1966 1902 2025 2017 1947 2150 2061 2069 2169 2102 2119 2181 2307 2348 2330 2336 2287 2371 2337 2566 2584 2685 2625 2790 2606 2650 2776 2796 2849 2961 2775 2841 2876 2879 2941 2947 2857 2966 2979 3008 2980 3117 3068 3190 3170 3119 3235 3087 3086 3095 3016 2989 2956 2817 2692 2784 2609 2539 2510 2471 2441 2428 2376 2462 2345 2272 2239 2276 2132 2080 2085 2166 2102 2132 2012 2044 2005 2051 2025 2101 1974 1886 1970 1901 1972 1885 1907 1953 1900 1909 1857 1924 1892 1863 1771 1892 1770 1849 1802 1839 1836 1792 1869 1882 1754 1753 1742 1802 1764 1786 1761 1876 1757 1780 1876 1804 1787 1800 1740 1792 1766 1803 1754 1839 1832 1835 1792 1795 1784 1754 1814 1812 1702 1760 1739 1727 1788 1743 1772 1718 1789 1778 1731 1706 1752 1671 1742 1712 1788 1787 1778 1778 1712 1800 1690 1620 1772 1704 1699 1764 1719 1723 1685 1729 1785 1740 1755 1759 1765 1769 1712 1728 1703 1738 1659 1627 1726 1709 1689 1721 1710 1675 1665 1715 1732 1680 1708 1706 1668 1710 1752 1673 1730 1705 1700 1733 1666 1738 1721 1764 1729 1721 1698 1697 1614 1781 1651 1601 1716 1682 1686 1641 1720 1741 1684 1730 1706 1637 1688 1632 1714 1710 1675 1697 1708 1667 1744 1747 1744 1719 1745 1667 1733 1711 1667 1666 1765 1766 1727 1619 1728 1702 1783 1765 1739 1711 1699 1673 1731 1716 1705 1726 1675 1783 1724 1710 1705 1767 1708 1720 1675 1714 1763 1718 1766 1673 1667 1797 1810 1804 1730 1715 1772 1689 1802 1773 1769 1852 1828 1804 1776 1868 1813 1845 1817 1850 1848 1849 1821 1826 1881 1887 1846 1887 1842 1839 1847 1787 1816 1813 1793 1834 1833 1797 1786 1860 1779 1887 1809 1743 1798 1822 1833 1805 1749 1773 1668 1708 1768 1775 1759 1749 1721 1768 1698 1745 1688 1707 1700 1685 1674 1681 1600 1733 1687 1659 1716 1693 1665 1773 1694 1742 1717 1670 1668 1665 1695 1786 1635 1672 1655 1712 1790 1710 1711 1739 1676 1668 1650 1637 1684 1670 1700 1694 1640 1723 1760 1715 1768 1736 1680 1673 1635 1658 1690 1696 1680 1703 1694 1723 1700 1651 1659 1665 1709 1655 1634 1740 1679 1705 1672 1729 1642 1683 1662 1673 1758 1719 1720 1651 1665 1737 1649 1709 1764 1666 1716 1695 1676 1601 1686 1710 1711 1662 1689 1720 1709 1788 1813 1688 1759 1693 1682 1645 1771 1763 1742 1686 1802 1737 1809 1915 1871 1843 1859 1918 1982 2062 2009 2093 2221 2255 2254 2274 2466 2566 2561 2724 2732 2876 3035 3229 3338 3418 3584 3629 3805 3852 3807 3858 3902 4000 4062 4050 4088 4106 4256 4151 4198 4097 4212 4257 4251 4266 4295 4298 4259 4287 4285 4461 4361 4372 4411 4352 4324 4273 4340 4344 4356 4209 4327 4258 4219 3878 3839 3588 3578 3359 3295 3193 3163 3106 2988 2856 2688 2686 2669 2539 2506 2585 2473 2519 2471 2386 2395 2389 2399 2272 2298 2258 2280 2249 2193 2210 2155 2145 2095 2135 2088 1987 1941 1959 1967 1986 1878 1866 1895 1965 1864 1816 1840 1747 1801 1823 1753 1734 1826 1832 1742 1711 1771 1737 1721 1775 1732 1685 1734 1725 1730 1694 1716 1705 1713 1693 1598 1684 1695 1715 1691 1637 1685 1657 1693 1590 1668 1587 1706 1690 1599 1604 1622 1674 1670 1628 1625 1672 1644 1655 1675 1659 1672 1700 1692 1680 1803 1704 1649 1687 1595 1641 1680 1553 1582 1648 1664 1657 1654 1653 1599 1671 1648 1608 1726 1607 1587 1634 1690 1707 1644 1612 1638 1612 1682 1614 1562 1486 1562 1571 1536 1626 1576 1604 1613 1590 1625 1583 1588 1521 1599 1603 1604 1517 1662 1572 1583 1586 1615 1531 1546 1645 1577 1652 1678 1575 1595 1632 1547 1633 1612 1625 1592 1606 1583 1696 1599 1646 1648 1618 1551 1543 1655 1599 1609 1606 1519 1571 1587 1644 1549 1519 1641 1587 1574 1595 1584 1622 1576 1636 1573 1635 1620 1522 1590 1634 1672 1598 1602 1657 1659 1505 1572 1631 1514 1592 1539 1617 1543 1589 1580 1599 1567 1624 1587 1641 1520 1665 1538 1684 1653 1667 1628 1590 1549 1592 1610 1605 1607 1565 1589 1557 1572 1534 1568 1591 1585 1616 1533 1697 1512 1652 1588 1557 1554 1625 1575 1659 1638 1554 1625 1608 1572 1596 1514 1567 1583 1650 1505 1597 1600 1619 1575 1665 1708 1643 1559 1628 1561 1595 1571 1578 1552 1618 1595 1582 1625 1582 1623 1595 1553 1649 1599 1577 1595 1607 1625 1621 1550 1634 1602 1583 1601 1547 1587 1610 1619 1639 1539 1588 1551 1584 1546 1589 1566 1607 1522 1587 1551 1558 1586 1552 1555 1551 1581 1610 1667 1688 1669 1553 1626 1604 1624 1546 1617 1592 1588 1529 1610 1540 1578 1572 1548 1588 1605 1626 1534 1654 1542 1589 1551 1577 1620 1555 1545 1538 1529 1606 1657 1626 1575 1585 1567 1535 1567 1571 1599 1532 1488 1528 1562 1545 1506 1575 1595 1664 1612 1650 1606 1574 1638 1574 1546 1595 1560 1699 1565 1621 1604 1566 1544 1616 1550 1618 1704 1529 1592 1570 1611 1624 1576 1570 1597 1526 1612 1458 1576 1531 1519 1554 1558 1517 1510 1467 1550 1533 1523 1539 1553 1558 1547 1586 1545 1543 1531 1559 1541 1518 1523 1526 1485 1478 1496 1480 1515 1521 1537 1481 1500 1577 1492 1532 1540 1470 1609 1494 1557 1582 1529 1493 1532 1516 1511 1494 1520 1472 1546 1565 1506 1490 1546 1514 1529 1576 1504 1476 1583 1512 1507 1492 1487 1552 1573 1547 1649 1438 1562 1545 1484 1516 1479 1440 1528 1550 1530 1499 1464 1514 1509 1453 1446 1510 1501 1507 1539 1596 1510 1509 1549 1608 1552 1491 1398 1444 1504 1601 1480 1543 1475 1476 1521 1475 1443 1475 1493 1483 1552 1467 1542 1571 1558 1504 1519 1531 1503 1527 1467 1515 1538 1494 1534 1514 1512 1493 1494 1503 1510 1545 1554 1507 1569 1541 1552 1519 1525 1595 1508 1513 1568 1570 1446 1429 1447 1566 1544 1429 1496 1538 1486 1572 1540 1538 1493 1520 1510 1519 1540 1557 1517 1496 1476 1497 1411 1558 1483 1557 1572 1499 1586 1535 1478 1481 1463 1427 1577 1522 1553 1605 1560 1503 1552 1523 1449 1529 1481 1448 1484 1436 1577 1506 1473 1484 1454 1496 1519 1545 1482 1541 1567 1445 1453 1445 1524 1551 1485 1452 1509 1459 1448 1564 1487 1493 1552 1491 1542 1423 1505 1500 1538 1438 1517 1522 1460 1470 1544 1433 1513 1488 1573 1467 1516 1511 1488 1499 1508 1536 1522 1468 1521 1457 1543 1569 1512 1517 1597 1443 1364 1537 1493 1478 1488 1493 1451 1500 1495 1517 1476 1529 1496 1499 1487 1482 1490 1527 1478 1560 1450 1542 1563 1547 1523 1503 1438 1489 1550 1512 1501 1433 1527 1531 1508 1554 1531 1442 1508 1497 1525 1583 1542 1484 1569 1520 1587 1537 1530 1481 1499 1507 1524 1549 1477 1532 1493 1482 1517 1443 1540 1500 1516 1471 1552 1585 1604 1483 1560 1541 1494 1482 1450 1585 1546 1529 1541 1543 1518 1515 1490 1514 1547 1552 1471 1518 1503 1549 1502 1621 1571 1585 1532 1545 1547 1563 1504 1550 1532 1579 1533 1541 1520 1490 1546 1530 1506 1492 1502 1510 1459 1470 1523 1506 1553 1459 1412 1538 1451 1437 1532 1567 1542 1512 1529 1509 1509 1443 1548 1447 1472 1506 1511 1512 1439 1557 1551 1461 1490 1545 1487 1471 1549 1496 1507 1510 1489 1493 1397 1494 1538 1520 1521 1500 1464 1447 1508 1533 1479 1482 1460 1480 1541 1495 1442 1485 1508 1526 1543 1507 1450 1428 1508 1565 1488 1482 1466 1572 1565 1506 1518 1451 1413 1436 1540 1529 1567 1498 1531 1475 1512 1485 1534 1515 1522 1500 1466 1511 1433 1516 1538 1497 1519 1463 1497 1547 1469 1578 1460 1498 1499 1579 1466 1518 1471 1565 1547 1463 1499 1559 1534 1477 1502 1498 1498 1581 1483 1443 1452 1532 1541 1519 1509 1493 1522 1489 1518 1556 1475 1483 1490 1513 1493 1495 1555 1538 1501 1478 1410 1473 1470 1494 1520 1450 1511 1474 1475 1471 1494 1490 1434 1469 1473 1484 1598 1560 1553 1460 1484 1512 1533 1551 1490 1534 1541 1484 1610 1467 1479 1490 1496 1534 1479 1544 1474 1466 1512 1553 1502 1510 1534 1597 1553 1577 1602 1561 1535 1597 1620 1609 1618 1646 1602 1660 1735 1702 1729 1780 1768 1700 1826 1743 1697 1750 1799 1690 1764 1717 1800 1763 1798 1775 1782 1732 1760 1668 1729 1713 1716 1722 1727 1744 1697 1753 1728 1687 1708 1770 1685 1667 1757 1708 1685 1726 1700 1630 1639 1537 1688 1639 1616 1651 1594 1676 1612 1568 1627 1569 1572 1539 1566 1619 1524 1569 1582 1554 1604 1512 1507 1516 1575 1466 1546 1524 1526 1592 1508 1527 1544 1526 1525 1538 1498 1520 1575 1481 1538 1570 1510 1513 1517 1505 1554 1560 1568 1550 1530 1534 1632 1565 1607 1586 1515 1563 1590 1591 1575 1662 1519 1596 1635 1597 1580 1635 1633 1528 1535 1618 1663 1559 1566 1575 1529 1553 1555 1569 1552 1549 1462 1608 1496 1462 1529 1519 1461 1484 1532 1521 1510 1535 1472 1514 1465 1523 1514 1426 1394 1481 1433 1465 1568 1534 1539 1517 1535 1497 1482 1502 1465 1458 1452 1474 1476 1504 1458 1476 1486 1458 1482 1515 1487 1505 1421 1555 1526 1459 1474 1468 1444 1477 1530 1522 1474 1412 1474 1531 1537 1423 1469 1464 1489 1574 1569 1476 1464 1508 1466 1503 1444 1477 1517 1454 1499 1543 1443 1463 1471 1421 1611 1516 1488 1470 1515 1492 1492 1420 1466 1424 1508 1474 1461 1484 1494 1476 1482 1497 1506 1540 1440 1501 1372 1437 1415 1478 1444 1496 1414 1413 1505 1467 1466 1484 1414 1480 1427 1503 1455 1491 1567 1403 1535 1439 1528 1516 1478 1510 1455 1507 1461 1497 1461 1479 1476 1526 1520 1503 1500 1464 1563 1498 1441 1471 1512 1507 1516 1475 1466 1489 1483 1499 1531 1536 1521 1543 1436 1539 1492 1507 1434 1506 1505 1528 1482 1444 1484 1452 1466 1504 1521 1569 1508 1501 1530 1469 1423 1426 1499 1513 1477 1475 1532 1459 1541 1483 1472 1461 1488 1485 1510 1544 1458 1449 1453 1485 1452 1478 1520 1498 1501 1482 1499 1537 1487 1438 1554 1493 1494 1479 1524 1551 1523 1494 1453 1507 1491 1482 1546 1529 1469 1526 1506 1506 1549 1598 1525 1488 1444 1558 1494 1500 1504 1554 1550 1556 1539 1500 1525 1623 1533 1574 1532 1543 1513 1570 1407 1581 1516 1535 1579 1560 1677 1642 1642 1630 1688 1667 1722 1816 1903 1921 2066 1957 2057 2107 2219 2213 2413 2324 2526 2536 2571 2719 2676 2737 2614 2744 2748 2791 2843 2837 2793 2763 2810 2849 2722 2854 2744 2806 2729 2724 2605 2624 2738 2643 2623 2638 2588 2633 2612 2463 2460 2523 2422 2542 2514 2448 2592 2557 2624 2562 2536 2622 2554 2458 2396 2358 2354 2296 2405 2280 2263 2348 2328 2269 2111 2155 2056 2080 2023 2008 1950 1913 1953 1847 1830 1830 1852 1850 1817 1767 1757 1918 1881 1673 1863 1786 1857 1752 1847 1812 1718 1835 1807 1795 1719 1724 1807 1734 1741 1786 1761 1719 1738 1809 1774 1660 1875 1808 1720 1795 1750 1757 1755 1677 1768 1752 1758 1677 1763 1815 1834 1723 1753 1748 1681 1678 1742 1670 1713 1736 1676 1741 1748 1652 1661 1715 1641 1648 1637 1572 1554 1575 1603 1670 1567 1549 1568 1571 1631 1554 1523 1515 1565 1512 1516 1568 1537 1511 1505 1519 1563 1473 1495 1492 1556 1578 1487 1547 1529 1495 1548 1582 1477 1463 1514 1484 1536 1519 1408 1558 1483 1512 1533 1510 1465 1446 1550 1420 1511 1474 1483 1567 1503 1498 1485 1465 1493 1497 1430 1506 1526 1453 1512 1523 1484 1506 1457 1449 1494 1481 1443 1480 1477 1524 1499 1549 1587 1411 1457 1537 1524 1540 1535 1428 1535 1564 1503 1479 1602 1576 1598 1581 1608 1577 1579 1584 1667 1543 1563 1604 1617 1661 1645 1581 1621 1617 1698 1602 1655 1585 1593 1619 1589 1638 1541 1626 1652 1536 1609 1593 1580 1635 1605 1616 1548 1595 1595 1589 1579 1653 1614 1575 1540 1631 1584 1608 1525 1542 1536 1596 1520 1500 1508 1544 1613 1567 1569 1571 1581 1581 1597 1515 1543 1541 1522 1527 1498 1550 1451 1552 1524 1457 1557 1546 1484 1559 1566 1578 1556 1434 1498 1449 1446 1431 1524 1501 1509 1478 1503 1483 1475 1529 1518 1487 1492 1518 1516 1472 1484 1530 1576 1490 1550 1508 1510 1557 1549 1540 1514 1486 1606 1498 1574 1511 1547 1543 1519 1478 1539 1520 1549 1502 1496 1503 1545 1490 1558 1473 1507 1476 1459 1478 1412 1482 1464 1454 1512 1417 1441 1464 1494 1435 1446 1469 1459 1438 1507 1488 1481 1500 1447 1456 1486 1423 1413 1476 1430 1481 1420 1512 1428 1491 1360 1449 1451 1445 1368 1439 1437 1448 1489 1456 1404 1488 1460 1515 1386 1450 1391 1420 1473 1442 1448 1385 1442 1401 1476 1426 1355 1444 1453 1475 1498 1406 1435 1469 1426 1413 1469 1481 1462 1467 1432 1451 1410 1497 1386 1464 1444 1429 1425 1463 1451 1446 1478 1397 1429 1456 1453 1468 1492 1448 1454 1451 1421 1441 1417 1456 1446 1411 1448 1462 1386 1438 1460 1443 1469 1390 1489 1464 1405 1382 1407 1454 1416 1450 1471 1470 1456 1418 1457 1434 1399 1430 1475 1452 1463 1542 1479 1427 1463 1377 1425 1441 1446 1552 1436 1365 1417 1377 1365 1477 1440 1413 1425 1516 1454 1464 1449 1459 1496 1463 1444 1458 1444 1447 1392 1368 1451 1441 1443 1382 1430 1439 1378 1487 1449 1471 1410 1397 1474 1446 1451 1420 1391 1500 1466 1490 1389 1491 1483 1444 1447 1430 1519 1396 1428 1391 1466 1420 1459 1492 1427 1446 1423 1418 1416 1373 1427 1459 1464 1426 1443 1413 1439 1423 1341 1462 1359 1452 1367 1408 1413 1365 1430 1520 1399 1452 1463 1373 1400 1416 1357 1416 1360 1493 1397 1382 1467 1509 1411 1387 1435 1479 1467 1427 1516 1446 1460 1457 1441 1402 1489 1474 1446 1405 1513 1437 1411 1463 1307 1400 1428 1437 1520 1472 1443 1434 1409 1465 1479 1368 1477 1401 1428 1485 1429 1390 1425 1477 1346 1473 1461 1450 1488 1462 1347 1514 1436 1411 1498 1449 1488 1407 1453 1438 1368 1450 1493 1528 1461 1490 1437 1445 1487 1452 1414 1362 1441 1431 1449 1423 1450 1459 1482 1445 1407 1463 1411 1460 1379 1480 1428 1486 1431 1371 1505 1459 1385 1404 1393 1408 1417 1432 1419 1442 1421 1355 1402 1529 1413 1375 1342 1459 1439 1439 1537 1445 1395 1523 1432 1370 1438 1434 1415 1456 1469 1444 1436 1445 1474 1442 1432 1471 1483 1460 1435 1434 1422 1370 1483 1453 1425 1358 1425 1444 1487 1410 1430 1415 1435 1418 1462 1380 1430 1321 1431 1467 1330 1407 1406 1477 1368 1440 1367 1461 1376 1479 1383 1384 1397 1369 1477 1479 1328 1398 1401 1360 1452 1431 1488 1396 1411 1404 1428 1441 1405 1455 1406 1468 1394 1422 1355 1410 1432 1499 1410 1452 1408 1445 1451 1526 1436 1476 1375 1437 1394 1517 1497 1427 1422 1444 1426 1413 1485 1466 1440 1453 1423 1479 1461 1484 1437 1478 1459 1488 1454 1463 1417 1525 1466 1419 1496 1451 1538 1477 1559 1530 1515 1488 1516 1471 1473 1457 1402 1470 1455 1470 1495 1475 1541 1451 1421 1451 1502 1465 1477 1465 1443 1462 1448 1468 1471 1471 1503 1461 1413 1497 1470 1448 1464 1503 1401 1419 1447 1487 1518 1578 1498 1526 1471 1539 1497 1517 1525 1525 1578 1590 1596 1593 1579 1458 1528 1445 1582 1599 1509 1580 1607 1506 1596 1621 1601 1586 1557 1624 1568 1597 1568 1524 1634 1556 1484 1527 1636 1598 1504 1577 1581 1646 1597 1526 1588 1543 1496 1645 1650 1658 1673 1556 1651 1638 1628 1686 1711 1595 1640 1700 1656 1716 1682 1652 1719 1714 1613 1619 1710 1727 1707 1729 1575 1686 1622 1711 1684 1565 1608 1580 1589 1553 1539 1550 1637 1510 1486 1457 1529 1535 1517 1521 1507 1437 1485 1470 1405 1512 1488 1404 1432 1496 1447 1490 1445 1420 1498 1492 1453 1490 1444 1421 1472 1459 1457 1386 1420 1525 1434 1445 1441 1410 1384 1516 1374 1444 1434 1415 1479 1480 1431 1404 1459 1398 1451 1373 1374 1447 1390 1407 1463 1447 1454 1462 1450 1495 1339 1444 1399 1472 1360 1419 1482 1389 1467 1451 1396 1332 1428 1459 1423 1368 1451 1488 1387 1421 1373 1407 1471 1438 1418 1387 1451 1413 1415 1489 1459 1407 1453 1507 1428 1398 1474 1416 1402 1411 1463 1414 1411 1461 1400 1380 1429 1483 1387 1430 1470 1472 1475 1399 1427 1499 1443 1459 1508 1469 1469 1472 1423 1482 1412 1451 1478 1414 1401 1433 1429 1447 1433 1368 1351 1440 1420 1481 1425 1423 1425 1402 1493 1470 1402 1504 1474 1415 1416 1439 1442 1396 1492 1457 1463 1450 1493 1488 1460 1418 1467 1486 1419 1468 1463 1403 1408 1456 1416 1462 1400 1420 1467 1510 1434 1453 1486 1517 1508 1422 1511 1548 1560 1599 1476 1590 1609 1665 1591 1618 1617 1761 1643 1764 1715 1722 1693 1734 1792 1722 1771 1692 1745 1831 1758 1810 1772 1813 1744 1875 1709 1782 1735 1706 1732 1691 1666 1729 1658 1713 1701 1696 1670 1659 1649 1694 1638 1620 1655 1694 1614 1596 1615 1627 1608 1636 1675 1679 1601 1664 1733 1637 1672 1683 1718 1701 1779 1716 1742 1741 1634 1658 1665 1602 1676 1613 1658 1680 1607 1612 1651 1622 1634 1585 1520 1543 1707 1593 1563 1593 1569 1582 1504 1503 1501 1480 1528 1489 1474 1448 1440 1454 1549 1532 1453 1457 1413 1448 1485 1482 1499 1425 1456 1477 1450 1490 1487 1399 1441 1461 1460 1567 1470 1474 1503 1524 1599 1505 1537 1451 1517 1476 1471 1508 1486 1532 1480 1485 1472 1545 1533 1438 1473 1556 1463 1454 1517 1515 1573 1580 1566 1489 1639 1601 1637 1608 1639 1627 1679 1627 1678 1684 1686 1760 1760 1641 1666 1688 1737 1717 1672 1604 1603 1667 1536 1680 1631 1629 1594 1623 1627 1556 1549 1586 1649 1559 1543 1533 1484 1571 1539 1540 1378 1438 1500 1509 1477 1430 1472 1471 1451 1478 1451 1490 1544 1496 1498 1528 1495 1485 1512 1570 1554 1562 1469 1520 1530 1503 1501 1413 1489 1554 1531 1521 1511 1506 1493 1496 1491 1604 1548 1451 1483 1449 1451 1455 1513 1506 1459 1505 1468 1455 1511 1494 1499 1445 1486 1426 1439 1427 1471 1486 1429 1540 1548 1436 1578 1455 1497 1479 1507 1457 1538 1450 1472 1435 1489 1453 1517 1466 1513 1438 1402 1480 1463 1505 1456 1510 1495 1476 1429 1427 1412 1452 1445 1475 1513 1517 1485 1347 1397 1421 1357 1402 1410 1404 1426 1361 1374 1395 1366 1484 1411 1507 1482 1455 1400 1406 1348 1417 1418 1402 1429 1399 1413 1335 1409 1380 1483 1452 1414 1413 1442 1340 1450 1349 1369 1464 1399 1458 1432 1453 1452 1467 1405 1393 1459 1397 1376 1371 1399 1432 1340 1440 1517 1427 1426 1449 1451 1439 1495 1449 1463 1464 1417 1476 1475 1453 1455 1409 1459 1443 1456 1449 1467 1467 1415 1394 1441 1495 1364 1431 1516 1454 1494 1443 1478 1518 1450 1416 1503 1475 1430 1392 1445 1407 1481 1446 1462 1443 1395 1457 1414 1434 1359 1393 1402 1444 1456 1397 1453 1416 1410 1389 1432 1409 1383 1330 1380 1431 1357 1380 1413 1372 1409 1420 1356 1393 1420 1406 1431 1430 1462 1370 1469 1389 1365 1443 1361 1500 1360 1365 1404 1423 1450 1445 1367 1343 1388 1389 1407 1410 1407 1425 1421 1403 1428 1397 1340 1318 1374 1475 1447 1374 1442 1366 1434 1331 1409 1355 1386 1404 1399 1446 1451 1315 1477 1385 1389 1442 1417 1425 1313 1394 1363 1401 1384 1410 1389 1373 1401 1390 1379 1379 1375 1425 1336 1424 1356 1386 1443 1373 1408 1402 1352 1454 1409 1412 1405 1409 1375 1431 1439 1389 1359 1415 1403 1361 1396 1353 1447 1289 1377 1406 1363 1338 1402 1375 1408 1353 1406 1404 1357 1397 1333 1404 1362 1449 1369 1391 1362 1380 1413 1362 1425 1394 1365 1419 1384 1371 1427 1473 1444 1424 1387 1372 1395 1377 1433 1362 1413 1472 1479 1440 1422 1481 1451 1435 1367 1394 1409 1400 1448 1449 1339 1459 1400 1419 1443 1332 1431 1424 1433 1403 1443 1366 1423 1351 1363 1440 1406 1393 1347 1386 1418 1390 1402 1392 1387 1425 1414 1335 1424 1375 1462 1380 1412 1427 1393 1425 1393 1357 1434 1447 1373 1398 1368 1472 1358 1298 1459 1371 1387 1388 1364 1408 1369 1358 1373 1424 1366 1374 1387 1405 1425 1418 1401 1350 1401 1380 1326 1415 1376 1411 1346 1444 1403 1454 1392 1348 1472 1377 1420 1344 1385 1412 1394 1335 1383 1390 1417 1348 1434 1381 1409 1380 1484 1441 1418 1359 1458 1400 1438 1455 1364 1430 1413 1345 1370 1389 1426 1402 1365 1430 1447 1406 1482 1383 1410 1407 1443 1342 1338 1353 1402 1421 1332 1435 1467 1354 1432 1388 1475 1382 1419 1411 1441 1399 1363 1356 1409 1317 1404 1486 1449 1402 1431 1418 1457 1426 1470 1368 1414 1438 1475 1415 1474 1413 1409 1483 1455 1483 1453 1448 1465 1477 1463 1466 1475 1490 1484 1453 1500 1458 1395 1381 1438 1488 1503 1433 1414 1450 1516 1432 1444 1381 1480 1391 1464 1430 1364 1409 1464 1427 1470 1419 1418 1401 1443 1370 1379 1403 1446 1447 1354 1455 1478 1404 1430 1430 1443 1430 1433 1403 1388 1452 1411 1462 1410 1385 1482 1380 1438 1365 1475 1324 1383 1395 1420 1373 1461 1424 1352 1472 1434 1451 1404 1442 1442 1368 1407 1411 1433 1345 1447 1408 1420 1474 1401 1372 1412 1405 1379 1424 1407 1421 1398 1433 1348 1364 1389 1411 1443 1356 1361 1393 1388 1394 1401 1399 1358 1379 1367 1363 1446 1409 1408 1347 1400 1440 1381 1386 1330 1424 1382 1440 1341 1406 1394 1456 1404 1378 1403 1373 1495 1356 1399 1427 1412 1381 1425 1432 1421 1371 1306 1433 1382 1366 1354 1414 1427 1435 1410 1360 1446 1431 1409 1413 1353 1447 1397 1422 1356 1376 1396 1391 1498 1436 1362 1418 1394 1441 1378 1388 1361 1361 1425 1323 1347 1392 1367 1380 1401 1349 1391 1342 1441 1382 1375 1380 1361 1404 1395 1416 1332 1379 1377 1439 1381 1426 1406 1386 1380 1370 1364 1399 1415 1350 1336 1369 1402 1389 1372 1357 1435 1446 1382 1361 1386 1396 1459 1414 1459 1409 1447 1332 1418 1331 1420 1399 1441 1392 1385 1419 1325 1434 1368 1439 1440 1457 1360 1425 1408 1332 1415 1354 1360 1338 1400 1463 1411 1478 1372 1436 1377 1389 1344 1388 1404 1399 1413 1322 1480 1363 1393 1416 1395 1412 1363 1369 1457 1421 1431 1424 1448 1429 1420 1417 1421 1468 1384 1428 1414 1438 1475 1479 1423 1343 1375 1385 1386 1459 1421 1436 1456 1458 1444 1517 1531 1428 1484 1505 1561 1507 1514 1663 1475 1506 1426 1554 1501 1542 1538 1492 1546 1449 1514 1537 1514 1522 1459 1483 1436 1568 1431 1534 1509 1422 1467 1489 1447 1477 1465 1543 1403 1475 1494 1464 1433 1456 1399 1398 1536 1424 1441 1470 1416 1385 1546 1523 1477 1427 1419 1509 1412 1464 1473 1512 1538 1422 1528 1394 1436 1544 1393 1470 1448 1488 1504 1529 1491 1451 1509 1529 1482 1474 1531 1478 1485 1490 1502 1436 1498 1442 1453 1428 1450 1404 1402 1415 1485 1395 1458 1472 1450 1458 1486 1372 1380 1449 1477 1433 1422 1409 1536 1378 1398 1404 1492 1475 1415 1434 1447 1418 1405 1350 1415 1348 1408 1428 1349 1360 1322 1296 1435 1367 1356 1405 1441 1417 1406 1395 1388 1380 1336 1392 1387 1439 1484 1425 1377 1396 1412 1417 1408 1440 1404 1396 1469 1363 1376 1470 1449 1376 1378 1397 1413 1483 1458 1388 1370 1376 1434 1428 1471 1418 1436 1440 1491 1390 1417 1397 1433 1466 1447 1365 1378 1373 1427 1309 1386 1353 1388 1380 1437 1351 1410 1408 1394 1454 1435 1418 1443 1459 1431 1394 1414 1465 1435 1428 1394 1446 1412 1407 1372 1371 1472 1428 1395 1406 1415 1405 1473 1470 1345 1428 1401 1392 1468 1412 1410 1423 1415 1494 1464 1428 1395 1407 1425 1350 1382 1431 1406 1394 1390 1401 1407 1405 1403 1432 1444 1396 1380 1390 1410 1363 1380 1404 1351 1393 1315 1373 1377 1393 1395 1385 1407 1406 1468 1391 1466 1357 1480 1418 1400 1308 1371 1347 1439 1408 1428 1432 1459 1416 1411 1398 1417 1405 1420 1367 1369 1452 1412 1320 1396 1362 1367 1366 1416 1401 1387 1388 1453 1404 1411 1483 1440 1352 1367 1426 1412 1416 1402 1404 1384 1369 1430 1407 1410 1498 1446 1422 1459 1397 1425 1382 1392 1399 1350 1429 1434 1458 1393 1447 1390 1377 1403 1455 1374 1420 1429 1437 1372 1423 1427 1356 1466 1364 1412 1419 1403 1402 1445 1422 1382 1398 1422 1434 1359 1385 1383 1453 1380 1367 1422 1372 1409 1446 1449 1464 1464 1380 1401 1405 1414 1324 1468 1407 1448 1408 1445 1375 1441 1370 1470 1446 1452 1379 1390 1378 1446 1465 1369 1443 1465 1470 1476 1428 1405 1443 1379 1407 1396 1353 1365 1357 1422 1421 1424 1390 1395 1444 1443 1394 1392 1469 1405 1382 1368 1383 1398 1426 1442 1414 1443 1408 1326 1408 1426 1421 1396 1381 1437 1464 1439 1405 1433 1423 1370 1391 1416 1397 1400 1331 1410 1365 1449 1442 1349 1429 1391 1381 1494 1440 1462 1409 1455 1373 1439 1384 1412 1365 1375 1354 1431 1378 1449 1364 1330 1419 1324 1359 1473 1429 1389 1414 1406 1384 1423 1341 1394 1390 1464 1374 1438 1396 1348 1407 1428 1345 1398 1420 1365 1345 1373 1404 1411 1454 1402 1390 1415 1337 1385 1509 1437 1343 1435 1412 1377 1377 1437 1391 1381 1398 1396 1408 1315 1359 1438 1369 1357 1420 1440 1479 1425 1350 1436 1399 1378 1395 1389 1382 1429 1473 1442 1483 1371 1436 1318 1419 1456 1377 1365 1391 1361 1435 1344 1370 1465 1477 1452 1398 1461 1448 1409 1443 1461 1379 1371 1464 1411 1439 1382 1384 1398 1499 1444 1419 1404 1388 1426 1443 1491 1427 1437 1405 1389 1344 1422 1378 1415 1408 1430 1434 1450 1390 1424 1395 1340 1409 1344 1434 1445 1434 1412 1421 1497 1493 1427 1488 1380 1391 1498 1370 1415 1377 1409 1450 1465 1335 1407 1385 1431 1381 1438 1435 1438 1489 1407 1365 1375 1430 1428 1374 1350 1462 1460 1401 1418 1434 1392 1377 1397 1393 1398 1356 1393 1380 1411 1407 1318 1315 1385 1441 1463 1408 1345 1463 1443 1447 1423 1390 1419 1463 1434 1397 1440 1328 1402 1457 1408 1484 1456 1456 1383 1503 1455 1452 1406 1434 1464 1373 1465 1508 1398 1489 1383 1523 1517 1456 1484 1468 1471 1436 1448 1454 1470 1439 1544 1501 1473 1434 1432 1365 1472 1446 1488 1471 1442 1428 1416 1441 1481 1403 1435 1442 1444 1438 1473 1484 1434 1486 1460 1449 1444 1396 1460 1405 1424 1489 1385 1448 1451 1521 1457 1457 1504 1387 1415 1513 1491 1494 1501 1474 1442 1486 1452 1466 1440 1460 1452 1444 1464 1516 1438 1482 1499 1420 1504 1470 1478 1487 1462 1506 1523 1419 1411 1469 1523 1506 1440 1465 1536 1498 1447 1482 1430 1442 1511 1516 1460 1415 1420 1539 1449 1420 1447 1402 1478 1443 1462 1463 1421 1455 1496 1445 1447 1464 1527 1440 1477 1440 1567 1430 1526 1461 1505 1483 1416 1463 1539 1469 1473 1502 1520 1501 1535 1527 1530 1498 1545 1481 1471 1555 1400 1513 1485 1539 1559 1499 1513 1473 1468 1428 1572 1510 1460 1428 1466 1542 1452 1474 1461 1399 1480 1396 1416 1440 1468 1394 1501 1501 1475 1462 1481 1432 1422 1454 1466 1486 1387 1475 1440 1455 1429 1405 1439 1440 1463 1444 1454 1454 1481 1395 1447 1450 1449 1462 1457 1456 1456 1391 1430 1524 1488 1559 1457 1529 1542 1533 1434 1496 1511 1493 1515 1515 1429 1548 1440 1487 1479 1467 1437 1519 1449 1524 1510 1444 1461 1509 1479 1457 1468 1387 1495 1438 1439 1501 1477 1481 1416 1468 1479 1411 1480 1444 1445 1461 1434 1454 1457 1408 1489 1369 1392 1421 1495 1512 1420 1465 1412 1452 1518 1477 1455 1463 1376 1480 1444 1491 1449 1467 1457 1477 1446 1537 1492 1444 1488 1549 1525 1545 1552 1612 1565 1539 1518 1612 1639 1565 1598 1721 1595 1568 1590 1574 1553 1665 1591 1657 1655 1641 1638 1653 1614 1576 1719 1608 1610 1648 1704 1644 1633 1653 1623 1609 1639 1651 1621 1588 1599 1655 1625 1607 1644 1618 1624 1635 1578 1585 1604 1500 1588 1527 1633 1554 1562 1564 1608 1587 1557 1573 1549 1454 1575 1460 1574 1552 1503 1543 1535 1578 1509 1431 1514 1568 1614 1636 1604 1513 1592 1508 1615 1592 1569 1546 1574 1652 1632 1659 1657 1690 1577 1600 1613 1604 1567 1595 1618 1566 1533 1584 1625 1577 1551 1630 1444 1574 1553 1553 1596 1545 1558 1542 1530 1487 1607 1574 1545 1492 1570 1499 1476 1458 1502 1390 1536 1488 1458 1458 1488 1479 1453 1381 1465 1441 1490 1394 1454 1480 1454 1483 1468 1455 1452 1500 1448 1514 1435 1406 1453 1400 1426 1475 1485 1454 1434 1460 1566 1464 1506 1433 1466 1483 1419 1501 1507 1415 1475 1464 1441 1461 1457 1460 1461 1438 1436 1473 1515 1443 1441 1486 1425 1489 1522 1500 1397 1506 1511 1485 1515 1561 1473 1422 1529 1486 1491 1484 1478 1513 1480 1521 1467 1515 1499 1470 1524 1492 1532 1424 1514 1525 1540 1486 1481 1474 1590 1499 1525 1519 1546 1492 1531 1440 1473 1492 1479 1524 1441 1426 1485 1418 1428 1435 1497 1459 1486 1499 1503 1498 1491 1455 1454 1421 1490 1433 1461 1457 1470 1499 1452 1455 1444 1449 1475 1477 1516 1473 1457 1477 1468 1433 1439 1446 1530 1423 1465 1444 1480 1469 1407 1468 1409 1452 1501 1410 1468 1451 1392 1435 1350 1409 1368 1472 1424 1437 1482 1459 1378 1349 1402 1388 1410 1431 1458 1359 1448 1431 1390 1329 1342 1484 1403 1375 1410 1468 1433 1416 1394 1410 1363 1409 1464 1412 1453 1449 1423 1394 1457 1418 1406 1440 1434 1448 1379 1434 1390 1498 1324 1486 1443 1412 1381 1432 1407 1389 1484 1388 1454 1429 1466 1427 1409 1426 1459 1414 1408 1353 1366 1425 1470 1458 1416 1482 1309 1323 1463 1345 1436 1440 1422 1459 1384 1385 1458 1466 1438 1350 1486 1391 1475 1452 1404 1392 1413 1386 1368 1449 1409 1430 1403 1482 1421 1469 1428 1398 1385 1456 1370 1411 1399 1365 1370 1468 1347 1406 1402 1463 1478 1379 1420 1373 1413 1435 1413 1431 1445 1453 1391 1456 1412 1457 1426 1478 1449 1399 1456 1410 1505 1476 1427 1438 1412 1454 1393 1447 1396 1435 1376 1471 1455 1496 1426 1456 1429 1399 1370 1388 1484 1411 1364 1390 1453 1410 1445 1436 1377 1407 1427 1471 1461 1394 1366 1398 1471 1442 1390 1453 1409 1422 1410 1390 1452 1455 1388 1416 1454 1405 1423 1430 1411 1460 1435 1415 1431 1424 1419 1442 1381 1370 1429 1396 1410 1428 1376 1421 1444 1345 1452 1448 1443 1417 1384 1435 1360 1430 1374 1337 1407 1435 1341 1416 1392 1338 1464 1352 1350 1429 1415 1429 1319 1461 1420 1455 1444 1451 1430 1438 1436 1437 1411 1390 1448 1364 1341 1374 1416 1443 1366 1451 1481 1451 1415 1438 1410 1412 1394 1441 1331 1363 1463 1434 1365 1372 1396 1431 1434 1399 1402 1433 1416 1393 1396 1485 1523 1430 1398 1424 1518 1439 1512 1363 1382 1415 1411 1400 1474 1432 1443 1349 1406 1481 1424 1383 1424 1428 1295 1412 1455 1388 1390 1389 1417 1444 1374 1361 1455 1413 1418 1426 1451 1375 1435 1413 1417 1433 1427 1457 1427 1467 1373 1374 1452 1485 1422 1453 1417 1409 1469 1400 1427 1491 1415 1454 1383 1415 1458 1430 1425 1406 1389 1399 1410 1434 1468 1460 1423 1479 1485 1435 1408 1398 1436 1383 1425 1386 1485 1407 1396 1433 1423 1516 1394 1375 1489 1508 1416 1459 1471 1443 1395 1418 1448 1474 1413 1391 1423 1448 1463 1504 1456 1460 1430 1398 1531 1403 1444 1424 1511 1460 1441 1457 1516 1435 1413 1468 1415 1456 1493 1466 1470 1432 1453 1486 1418 1363 1353 1439 1452 1421 1448 1463 1418 1397 1405 1405 1459 1462 1437 1407 1406 1365 1456 1394 1472 1455 1503 1453 1455 1398 1474 1456 1444 1401 1349 1452 1422 1428 1487 1423 1469 1471 1416 1373 1416 1421 1373 1423 1389 1416 1421 1435 1452 1407 1456 1463 1421 1455 1429 1428 1354 1440 1459 1424 1460 1380 1387 1496 1419 1420 1458 1451 1423 1408 1460 1438 1443 1406 1436 1445 1385 1463 1425 1408 1434 1479 1463 1494 1428 1407 1401 1410 1417 1387 1429 1466 1507 1341 1398 1367 1422 1400 1434 1461 1434 1422 1501 1384 1367 1415 1464 1402 1392 1401 1403 1505 1437 1473 1403 1494 1417 1425 1353 1463 1416 1445 1390 1414 1369 1503 1449 1478 1382 1399 1417 1431 1397 1471 1391 1422 1399 1480 1477 1357 1338 1351 1458 1452 1445 1434 1408 1458 1402 1357 1437 1423 1461 1442 1410 1450 1391 1465 1379 1316 1414 1394 1380 1415 1410 1453 1426 1423 1433 1366 1397 1428 1460 1424 1423 1483 1516 1432 1489 1391 1433 1409 1402 1419 1414 1364 1487 1433 1457 1433 1420 1452 1450 1403 1416 1388 1419 1462 1442 1400 1465 1368 1430 1425 1463 1466 1452 1425 1423 1464 1510 1412 1406 1394 1436 1431 1435 1408 1461 1426 1359 1419 1435 1464 1451 1457 1409 1427 1466 1469 1395 1538 1443 1484 1469 1458 1474 1486 1437 1401 1426 1431 1376 1439 1443 1500 1413 1435 1476 1526 1455 1527 1537 1511 1507 1524 1497 1584 1595 1602 1464 1593 1586 1612 1565 1576 1548 1611 1588 1593 1574 1561 1607 1473 1631 1531 1579 1624 1493 1574 1521 1606 1588 1657 1611 1540 1524 1632 1506 1540 1534 1654 1562 1573 1623 1565 1462 1584 1586 1530 1489 1558 1585 1512 1505 1505 1555 1591 1485 1495 1547 1526 1494 1484 1498 1450 1442 1461 1480 1448 1496 1474 1505 1510 1439 1462 1438 1480 1506 1548 1462 1446 1389 1454 1524 1503 1558 1493 1529 1535 1540 1569 1528 1488 1538 1534 1610 1571 1564 1565 1566 1522 1549 1466 1523 1551 1590 1576 1552 1571 1529 1484 1548 1542 1535 1582 1513 1460 1531 1512 1501 1550 1464 1518 1463 1503 1480 1492 1501 1555 1504 1515 1448 1500 1487 1384 1452 1487 1501 1442 1486 1487 1417 1433 1413 1393 1474 1446 1446 1526 1477 1491 1511 1488 1421 1438 1445 1407 1444 1493 1375 1400 1408 1429 1374 1370 1444 1432 1447 1401 1421 1398 1417 1442 1416 1430 1415 1432 1433 1422 1448 1456 1436 1420 1405 1464 1511 1417 1500 1416 1391 1381 1452 1446 1417 1440 1505 1414 1459 1470 1404 1526 1459 1445 1466 1409 1521 1429 1536 1479 1461 1395 1480 1483 1471 1491 1494 1503 1458 1467 1497 1471 1491 1446 1469 1485 1494 1437 1560 1503 1485 1406 1396 1435 1447 1434 1425 1492 1459 1416 1474 1469 1472 1492 1454 1469 1425 1510 1462 1410 1407 1478 1493 1471 1503 1489 1486 1490 1489 1492 1505 1525 1529 1482 1508 1483 1500 1470 1439 1474 1420 1403 1465 1548 1491 1516 1446 1440 1459 1402 1472 1427 1458 1493 1460 1405 1427 1410 1400 1525 1438 1476 1477 1443 1477 1448 1409 1437 1404 1498 1496 1447 1389 1461 1476 1444 1471 1472 1467 1467 1435 1463 1336 1408 1418 1344 1478 1486 1416 1517 1501 1412 1415 1377 1434 1499 1432 1413 1419 1452 1415 1408 1481 1413 1464 1426 1438 1425 1425 1398 1440 1376 1393 1368 1433 1477 1426 1375 1472 1483 1390 1390 1367 1529 1440 1474 1399 1390 1434 1439 1455 1366 1394 1388 1433 1368 1436 1350 1450 1341 1434 1453 1446 1431 1423 1446 1438 1410 1391 1425 1458 1409 1433 1420 1456 1390 1514 1494 1455 1475 1430 1411 1460 1353 1394 1433 1437 1479 1390 1390 1404 1461 1451 1434 1446 1388 1454 1435 1464 1445 1429 1427 1375 1420 1385 1434 1367 1451 1415 1435 1491 1411 1390 1450 1452 1486 1423 1410 1361 1398 1429 1402 1396 1353 1392 1423 1403 1420 1387 1420 1419 1370 1411 1454 1417 1435 1390 1525 1415 1398 1440 1430 1416 1392 1476 1423 1355 1373 1351 1422 1430 1420 1398 1471 1405 1480 1400 1501 1459 1440 1396 1348 1432 1438 1431 1432 1363 1399 1445 1367 1423 1416 1432 1463 1506 1434 1390 1489 1416 1435 1388 1461 1380 1419 1422 1415 1482 1431 1360 1387 1413 1538 1476 1446 1373 1341 1412 1421 1415 1449 1416 1406 1377 1428 1442 1469 1444 1393 1412 1435 1497 1421 1436 1387 1361 1441 1351 1399 1512 1446 1433 1512 1415 1398 1347 1434 1376 1432 1374 1376 1400 1370 1381 1402 1461 1331 1437 1469 1394 1402 1438 1453 1400 1431 1451 1511 1416 1435 1427 1427 1435 1374 1380 1425 1438 1503 1416 1454 1444 1437 1436 1371 1463 1499 1421 1369 1370 1379 1442 1398 1434 1469 1528 1432 1473 1482 1394 1401 1422 1408 1465 1416 1420 1426 1464 1396 1398 1366 1380 1411 1462 1431 1396 1406 1438 1457 1461 1495 1346 1356 1428 1397 1453 1373 1398 1440 1391 1451 1427 1423 1445 1432 1417 1484 1460 1472 1389</counts>
			</dataPoints>
		</scan>
	</xrdMeasurement>
</xrdMeasurements>
